Wavelength,Intensity
 177.185,    -58.21 
 177.571,    -58.21 
 177.957,    -58.21 
 178.343,     42.78 
 178.729,    -42.50 
 179.115,    -53.72 
 179.500,    -33.52 
 179.886,     71.96 
 180.272,     54.00 
 180.658,     29.32 
 181.043,     -8.84 
 181.429,     15.85 
 181.815,     -8.84 
 182.200,    -49.24 
 182.586,     60.74 
 182.972,    -17.81 
 183.357,     42.78 
 183.743,    -44.75 
 184.128,     24.83 
 184.513,     -6.59 
 184.899,      6.87 
 185.284,     -8.84 
 185.670,      0.14 
 186.055,   -109.83 
 186.440,    -35.77 
 186.825,     -4.35 
 187.210,    -62.70 
 187.596,     85.43 
 187.981,      9.12 
 188.366,    -15.57 
 188.751,     69.72 
 189.136,      2.38 
 189.521,     -6.59 
 189.906,      6.87 
 190.291,     11.36 
 190.676,     56.25 
 191.060,    -17.81 
 191.445,    -44.75 
 191.830,    -20.06 
 192.215,     20.34 
 192.599,    -17.81 
 192.984,    -42.50 
 193.369,    -44.75 
 193.753,      4.63 
 194.138,    -26.79 
 194.522,    -60.46 
 194.907,     15.85 
 195.291,     22.58 
 195.676,    -51.48 
 196.060,      2.38 
 196.445,    -13.33 
 196.829,    -42.50 
 197.213,     22.58 
 197.597,    -53.72 
 197.982,      6.87 
 198.366,    -64.95 
 198.750,    -20.06 
 199.134,    -20.06 
 199.518,     67.47 
 199.902,     -4.35 
 200.286,     -8.84 
 200.670,     56.25 
 201.054,     -8.84 
 201.438,     -2.10 
 201.822,      2.38 
 202.206,    -40.26 
 202.590,    -31.28 
 202.973,     11.36 
 203.357,    -73.92 
 203.741,    -49.24 
 204.124,      4.63 
 204.508,     27.07 
 204.892,     -2.10 
 205.275,      0.14 
 205.659,     24.83 
 206.042,     47.27 
 206.426,    -55.97 
 206.809,    -17.81 
 207.193,    -55.97 
 207.576,    -44.75 
 207.959,     22.58 
 208.342,    -35.77 
 208.726,    -71.68 
 209.109,    -24.55 
 209.492,    -26.79 
 209.875,      9.12 
 210.258,    -76.17 
 210.641,   -105.34 
 211.025,    -42.50 
 211.408,     22.58 
 211.790,     18.10 
 212.173,     20.34 
 212.556,    -22.30 
 212.939,    -44.75 
 213.322,     45.03 
 213.705,      2.38 
 214.088,    -33.52 
 214.470,      0.14 
 214.853,     15.85 
 215.236,    -60.46 
 215.618,      9.12 
 216.001,    -40.26 
 216.383,     31.56 
 216.766,    -31.28 
 217.148,     47.27 
 217.531,    -24.55 
 217.913,     38.29 
 218.296,   -103.10 
 218.678,    -11.08 
 219.060,     -4.35 
 219.443,    -17.81 
 219.825,    -40.26 
 220.207,    -20.06 
 220.589,      9.12 
 220.971,     40.54 
 221.353,     31.56 
 221.735,    -35.77 
 222.118,    -80.66 
 222.500,    -13.33 
 222.881,    -35.77 
 223.263,    -78.41 
 223.645,    -96.37 
 224.027,    -31.28 
 224.409,      2.38 
 224.791,     20.34 
 225.172,    -33.52 
 225.554,    -89.63 
 225.936,     38.29 
 226.317,     38.29 
 226.699,    -51.48 
 227.081,    -20.06 
 227.462,    -13.33 
 227.844,    -13.33 
 228.225,    -49.24 
 228.607,    -80.66 
 228.988,    -26.79 
 229.369,     65.23 
 229.751,     33.81 
 230.132,      2.38 
 230.513,     -4.35 
 230.894,    -24.55 
 231.276,     -2.10 
 231.657,     22.58 
 232.038,     22.58 
 232.419,    -29.04 
 232.800,    -49.24 
 233.181,     -2.10 
 233.562,     58.49 
 233.943,    -58.21 
 234.324,    -62.70 
 234.705,      6.87 
 235.085,     54.00 
 235.466,    -22.30 
 235.847,    -29.04 
 236.228,      4.63 
 236.608,     18.10 
 236.989,     62.98 
 237.370,     22.58 
 237.750,     36.05 
 238.131,     87.67 
 238.511,    -35.77 
 238.892,     54.00 
 239.272,     11.36 
 239.653,     -6.59 
 240.033,     13.61 
 240.413,     71.96 
 240.794,    -38.01 
 241.174,     22.58 
 241.554,    -22.30 
 241.934,      9.12 
 242.314,     33.81 
 242.694,    -24.55 
 243.075,     -2.10 
 243.455,    -62.70 
 243.835,     18.10 
 244.215,     33.81 
 244.595,    -40.26 
 244.974,   -130.03 
 245.354,     40.54 
 245.734,    -38.01 
 246.114,    -13.33 
 246.494,     29.32 
 246.873,    -89.63 
 247.253,    -40.26 
 247.633,    -20.06 
 248.012,      9.12 
 248.392,    -20.06 
 248.771,    -51.48 
 249.151,    -80.66 
 249.530,    -58.21 
 249.910,      2.38 
 250.289,    -44.75 
 250.669,     18.10 
 251.048,    -58.21 
 251.427,     -8.84 
 251.806,      2.38 
 252.186,    -20.06 
 252.565,   -136.77 
 252.944,    -15.57 
 253.323,     13.61 
 253.702,     -8.84 
 254.081,    -35.77 
 254.460,    -26.79 
 254.839,     11.36 
 255.218,    -15.57 
 255.597,    -26.79 
 255.976,     60.74 
 256.355,      4.63 
 256.733,    -76.17 
 257.112,    -51.48 
 257.491,    -67.19 
 257.870,     -8.84 
 258.248,      2.38 
 258.627,     -6.59 
 259.005,    -35.77 
 259.384,     65.23 
 259.762,     24.83 
 260.141,     18.10 
 260.519,    -49.24 
 260.898,      4.63 
 261.276,     42.78 
 261.654,    -24.55 
 262.033,    -26.79 
 262.411,    137.05 
 262.789,     49.52 
 263.167,    -13.33 
 263.545,     -8.84 
 263.924,     33.81 
 264.302,    -31.28 
 264.680,      9.12 
 265.058,    -15.57 
 265.436,      2.38 
 265.813,     67.47 
 266.191,    -53.72 
 266.569,     33.81 
 266.947,    -51.48 
 267.325,    -82.90 
 267.702,    -15.57 
 268.080,    -26.79 
 268.458,    -44.75 
 268.835,      6.87 
 269.213,     15.85 
 269.591,    -58.21 
 269.968,      9.12 
 270.346,     42.78 
 270.723,     83.18 
 271.100,     -8.84 
 271.478,    -33.52 
 271.855,     -2.10 
 272.232,    -15.57 
 272.610,    -13.33 
 272.987,     18.10 
 273.364,      6.87 
 273.741,     22.58 
 274.118,    -15.57 
 274.495,    -46.99 
 274.872,     -8.84 
 275.249,     -6.59 
 275.626,     13.61 
 276.003,    -17.81 
 276.380,      6.87 
 276.757,    -58.21 
 277.134,    -15.57 
 277.511,    -40.26 
 277.887,    -17.81 
 278.264,     22.58 
 278.641,     27.07 
 279.018,     54.00 
 279.394,     60.74 
 279.771,     20.34 
 280.147,    -17.81 
 280.524,      9.12 
 280.900,      2.38 
 281.277,    -49.24 
 281.653,    -13.33 
 282.029,     -6.59 
 282.406,      4.63 
 282.782,    -58.21 
 283.158,    -22.30 
 283.534,     13.61 
 283.910,     -6.59 
 284.287,     38.29 
 284.663,     69.72 
 285.039,     18.10 
 285.415,     -6.59 
 285.791,     74.20 
 286.167,    105.62 
 286.542,      4.63 
 286.918,     13.61 
 287.294,     31.56 
 287.670,     47.27 
 288.046,     67.47 
 288.421,     71.96 
 288.797,     56.25 
 289.173,     78.69 
 289.548,    -15.57 
 289.924,     18.10 
 290.299,    110.11 
 290.675,     98.89 
 291.050,     62.98 
 291.426,     85.43 
 291.801,     85.43 
 292.177,     18.10 
 292.552,     29.32 
 292.927,     45.03 
 293.302,    134.80 
 293.678,     87.67 
 294.053,    107.87 
 294.428,     98.89 
 294.803,    141.53 
 295.178,     87.67 
 295.553,     60.74 
 295.928,     98.89 
 296.303,     76.45 
 296.678,     31.56 
 297.053,     62.98 
 297.427,    103.38 
 297.802,    141.53 
 298.177,     80.94 
 298.552,     92.16 
 298.926,     98.89 
 299.301,     62.98 
 299.676,     67.47 
 300.050,    130.31 
 300.425,     67.47 
 300.799,     51.76 
 301.174,     42.78 
 301.548,     54.00 
 301.922,     54.00 
 302.297,     58.49 
 302.671,     33.81 
 303.045,     45.03 
 303.420,     89.91 
 303.794,     45.03 
 304.168,    157.24 
 304.542,     69.72 
 304.916,     98.89 
 305.290,     20.34 
 305.664,     98.89 
 306.038,     76.45 
 306.412,    107.87 
 306.786,    123.58 
 307.160,    238.04 
 307.534,    370.46 
 307.907,    570.20 
 308.281,    826.06 
 308.655,   1046.01 
 309.028,   1214.33 
 309.402,   1239.02 
 309.776,   1292.89 
 310.149,   1254.73 
 310.523,   1203.11 
 310.896,    933.79 
 311.270,    846.26 
 311.643,    817.08 
 312.016,    924.81 
 312.390,    866.46 
 312.763,    927.06 
 313.136,    897.88 
 313.509,    868.70 
 313.883,    911.35 
 314.256,    888.90 
 314.629,    812.59 
 315.002,    879.93 
 315.375,    776.69 
 315.748,    630.80 
 316.121,    693.64 
 316.494,    664.47 
 316.867,    590.40 
 317.240,    626.31 
 317.612,    583.67 
 317.985,    511.85 
 318.358,    567.96 
 318.730,    487.16 
 319.103,    457.99 
 319.476,    433.30 
 319.848,    386.17 
 320.221,    336.79 
 320.593,    289.66 
 320.966,    305.37 
 321.338,    309.86 
 321.711,    285.17 
 322.083,    235.80 
 322.455,    264.97 
 322.828,    206.62 
 323.200,    181.93 
 323.572,    325.57 
 323.944,    264.97 
 324.316,    215.60 
 324.688,    247.02 
 325.060,    233.55 
 325.432,    150.51 
 325.804,    240.29 
 326.176,    143.78 
 326.548,    190.91 
 326.920,    116.85 
 327.292,    107.87 
 327.664,    166.22 
 328.035,    175.20 
 328.407,    172.96 
 328.779,    152.76 
 329.150,    123.58 
 329.522,    114.60 
 329.893,    224.58 
 330.265,     80.94 
 330.636,    137.05 
 331.008,    139.29 
 331.379,    134.80 
 331.750,     85.43 
 332.122,    134.80 
 332.493,    139.29 
 332.864,     94.40 
 333.236,    226.82 
 333.607,    181.93 
 333.978,    155.00 
 334.349,    195.40 
 334.720,    134.80 
 335.091,     98.89 
 335.462,     71.96 
 335.833,    170.71 
 336.204,    143.78 
 336.575,    247.02 
 336.945,    114.60 
 337.316,    175.20 
 337.687,    179.69 
 338.058,    202.13 
 338.428,    141.53 
 338.799,     94.40 
 339.169,    258.24 
 339.540,    224.58 
 339.911,    244.77 
 340.281,    172.96 
 340.651,    166.22 
 341.022,    244.77 
 341.392,    204.38 
 341.762,    244.77 
 342.133,    195.40 
 342.503,    195.40 
 342.873,    222.33 
 343.243,    220.09 
 343.613,    163.98 
 343.984,    193.15 
 344.354,    186.42 
 344.724,    229.06 
 345.094,    105.62 
 345.464,    121.34 
 345.833,    166.22 
 346.203,    172.96 
 346.573,    152.76 
 346.943,    112.36 
 347.313,    199.89 
 347.682,    134.80 
 348.052,    134.80 
 348.422,    179.69 
 348.791,    143.78 
 349.161,    143.78 
 349.530,    125.82 
 349.900,    197.64 
 350.269,    123.58 
 350.638,    204.38 
 351.008,    177.44 
 351.377,    175.20 
 351.746,    163.98 
 352.116,    170.71 
 352.485,    199.89 
 352.854,    141.53 
 353.223,    163.98 
 353.592,    137.05 
 353.961,    179.69 
 354.330,    134.80 
 354.699,    211.11 
 355.068,    206.62 
 355.437,    269.46 
 355.806,    146.02 
 356.175,    157.24 
 356.543,    199.89 
 356.912,    195.40 
 357.281,    134.80 
 357.650,    146.02 
 358.018,    208.86 
 358.387,    139.29 
 358.755,    208.86 
 359.124,    101.14 
 359.492,    116.85 
 359.861,    184.18 
 360.229,    188.67 
 360.597,    157.24 
 360.966,    125.82 
 361.334,    110.11 
 361.702,    168.47 
 362.070,    139.29 
 362.438,    170.71 
 362.807,    170.71 
 363.175,    163.98 
 363.543,    163.98 
 363.911,    181.93 
 364.279,    159.49 
 364.646,    217.84 
 365.014,    215.60 
 365.382,    238.04 
 365.750,    128.07 
 366.118,    175.20 
 366.485,    155.00 
 366.853,    170.71 
 367.221,    197.64 
 367.588,    208.86 
 367.956,    161.73 
 368.323,    184.18 
 368.691,    134.80 
 369.058,    215.60 
 369.426,    161.73 
 369.793,    170.71 
 370.160,    206.62 
 370.528,    179.69 
 370.895,    123.58 
 371.262,    186.42 
 371.629,    132.56 
 371.996,    197.64 
 372.363,    193.15 
 372.730,    161.73 
 373.097,    130.31 
 373.464,    110.11 
 373.831,    179.69 
 374.198,    155.00 
 374.565,    195.40 
 374.932,    197.64 
 375.299,    206.62 
 375.665,    150.51 
 376.032,    172.96 
 376.399,    202.13 
 376.765,    206.62 
 377.132,    231.31 
 377.498,    235.80 
 377.865,    128.07 
 378.231,    166.22 
 378.598,    134.80 
 378.964,    217.84 
 379.331,    190.91 
 379.697,    146.02 
 380.063,    175.20 
 380.429,    211.11 
 380.795,    195.40 
 381.162,    199.89 
 381.528,    215.60 
 381.894,    222.33 
 382.260,    170.71 
 382.626,    128.07 
 382.992,    119.09 
 383.358,    181.93 
 383.723,    163.98 
 384.089,    143.78 
 384.455,    220.09 
 384.821,    303.13 
 385.186,    181.93 
 385.552,    123.58 
 385.918,    190.91 
 386.283,    215.60 
 386.649,    208.86 
 387.014,     76.45 
 387.380,    110.11 
 387.745,    116.85 
 388.111,    233.55 
 388.476,     69.72 
 388.841,     76.45 
 389.206,    177.44 
 389.572,    229.06 
 389.937,    262.73 
 390.302,    217.84 
 390.667,    238.04 
 391.032,    166.22 
 391.397,     76.45 
 391.762,    181.93 
 392.127,    199.89 
 392.492,    163.98 
 392.857,    125.82 
 393.222,    157.24 
 393.587,    199.89 
 393.951,    190.91 
 394.316,    190.91 
 394.681,    121.34 
 395.045,    130.31 
 395.410,    146.02 
 395.774,    150.51 
 396.139,    273.95 
 396.503,    170.71 
 396.868,    146.02 
 397.232,    139.29 
 397.596,    251.51 
 397.961,    325.57 
 398.325,    502.87 
 398.689,    334.55 
 399.053,    247.02 
 399.418,    170.71 
 399.782,    188.67 
 400.146,     92.16 
 400.510,    211.11 
 400.874,    146.02 
 401.238,    137.05 
 401.602,    114.60 
 401.965,     92.16 
 402.329,    148.27 
 402.693,     78.69 
 403.057,    150.51 
 403.420,    188.67 
 403.784,    163.98 
 404.148,    179.69 
 404.511,    152.76 
 404.875,    110.11 
 405.238,    181.93 
 405.602,    186.42 
 405.965,     92.16 
 406.329,    157.24 
 406.692,    175.20 
 407.055,    197.64 
 407.418,    170.71 
 407.782,    184.18 
 408.145,    256.00 
 408.508,    177.44 
 408.871,     58.49 
 409.234,     89.91 
 409.597,    175.20 
 409.960,     96.65 
 410.323,    184.18 
 410.686,    440.03 
 411.049,    976.43 
 411.412,   1402.86 
 411.774,    774.44 
 412.137,    356.99 
 412.500,    208.86 
 412.862,    193.15 
 413.225,    197.64 
 413.588,    101.14 
 413.950,    110.11 
 414.313,    186.42 
 414.675,    146.02 
 415.037,    208.86 
 415.400,    103.38 
 415.762,    181.93 
 416.124,    190.91 
 416.487,     74.20 
 416.849,    130.31 
 417.211,    130.31 
 417.573,    193.15 
 417.935,    170.71 
 418.297,    134.80 
 418.659,    170.71 
 419.021,    119.09 
 419.383,    114.60 
 419.745,    121.34 
 420.107,    107.87 
 420.469,     69.72 
 420.830,     89.91 
 421.192,    155.00 
 421.554,    132.56 
 421.915,    105.62 
 422.277,     98.89 
 422.638,    179.69 
 423.000,    116.85 
 423.361,    112.36 
 423.723,    229.06 
 424.084,    161.73 
 424.446,    175.20 
 424.807,    163.98 
 425.168,    141.53 
 425.529,    172.96 
 425.891,    112.36 
 426.252,    157.24 
 426.613,    177.44 
 426.974,    125.82 
 427.335,    170.71 
 427.696,    112.36 
 428.057,    157.24 
 428.418,    132.56 
 428.778,    186.42 
 429.139,    186.42 
 429.500,     94.40 
 429.861,     83.18 
 430.221,    170.71 
 430.582,    166.22 
 430.943,    155.00 
 431.303,    159.49 
 431.664,     74.20 
 432.024,    224.58 
 432.385,    114.60 
 432.745,    130.31 
 433.105,    107.87 
 433.466,    101.14 
 433.826,    208.86 
 434.186,    453.50 
 434.546,   1198.62 
 434.907,   3326.27 
 435.267,   6073.35 
 435.627,   3270.16 
 435.987,    987.65 
 436.347,    318.84 
 436.707,    224.58 
 437.067,    141.53 
 437.427,     49.52 
 437.786,    226.82 
 438.146,    238.04 
 438.506,    177.44 
 438.866,     96.65 
 439.225,    110.11 
 439.585,    128.07 
 439.944,    123.58 
 440.304,    114.60 
 440.663,    101.14 
 441.023,     76.45 
 441.382,    112.36 
 441.742,    163.98 
 442.101,     71.96 
 442.460,     71.96 
 442.820,    152.76 
 443.179,    193.15 
 443.538,     67.47 
 443.897,    123.58 
 444.256,    125.82 
 444.615,    110.11 
 444.974,     69.72 
 445.333,    121.34 
 445.692,    119.09 
 446.051,    121.34 
 446.410,    166.22 
 446.768,    143.78 
 447.127,    125.82 
 447.486,    105.62 
 447.845,    202.13 
 448.203,    152.76 
 448.562,    119.09 
 448.920,    143.78 
 449.279,     76.45 
 449.637,    121.34 
 449.996,    150.51 
 450.354,    177.44 
 450.712,    128.07 
 451.071,     67.47 
 451.429,    105.62 
 451.787,    105.62 
 452.145,    170.71 
 452.503,     45.03 
 452.861,    157.24 
 453.219,    105.62 
 453.577,    103.38 
 453.935,     96.65 
 454.293,     62.98 
 454.651,    119.09 
 455.009,     56.25 
 455.367,     87.67 
 455.725,    190.91 
 456.082,     89.91 
 456.440,     47.27 
 456.798,     94.40 
 457.155,    146.02 
 457.513,    114.60 
 457.870,     54.00 
 458.228,    103.38 
 458.585,    101.14 
 458.942,    116.85 
 459.300,    103.38 
 459.657,    101.14 
 460.014,     67.47 
 460.371,    143.78 
 460.729,    155.00 
 461.086,     76.45 
 461.443,     22.58 
 461.800,     51.76 
 462.157,    141.53 
 462.514,     92.16 
 462.871,    134.80 
 463.227,     92.16 
 463.584,     42.78 
 463.941,    105.62 
 464.298,    130.31 
 464.655,    112.36 
 465.011,     22.58 
 465.368,    137.05 
 465.724,    141.53 
 466.081,    121.34 
 466.437,    179.69 
 466.794,    148.27 
 467.150,    121.34 
 467.507,     89.91 
 467.863,    116.85 
 468.219,    159.49 
 468.575,     98.89 
 468.932,    121.34 
 469.288,     62.98 
 469.644,    134.80 
 470.000,    134.80 
 470.356,     87.67 
 470.712,     15.85 
 471.068,     29.32 
 471.424,     85.43 
 471.780,     13.61 
 472.135,    110.11 
 472.491,    130.31 
 472.847,     74.20 
 473.203,    105.62 
 473.558,     94.40 
 473.914,    170.71 
 474.269,     33.81 
 474.625,     58.49 
 474.980,     45.03 
 475.336,    146.02 
 475.691,     94.40 
 476.046,     83.18 
 476.402,     78.69 
 476.757,     36.05 
 477.112,     56.25 
 477.467,    139.29 
 477.823,     98.89 
 478.178,     87.67 
 478.533,    139.29 
 478.888,     85.43 
 479.243,    168.47 
 479.598,    152.76 
 479.952,    125.82 
 480.307,    125.82 
 480.662,    197.64 
 481.017,    186.42 
 481.372,    150.51 
 481.726,    177.44 
 482.081,    161.73 
 482.435,    215.60 
 482.790,    179.69 
 483.144,    157.24 
 483.499,    206.62 
 483.853,    105.62 
 484.208,    114.60 
 484.562,    134.80 
 484.916,    206.62 
 485.270,    287.42 
 485.625,    296.39 
 485.979,    624.07 
 486.333,   2682.14 
 486.687,  13466.24 
 487.041,  41302.90 
 487.395,  56402.88 
 487.749,  21328.19 
 488.103,   5395.56 
 488.457,   1458.97 
 488.810,    713.84 
 489.164,    379.44 
 489.518,    300.88 
 489.872,    307.62 
 490.225,    220.09 
 490.579,    152.76 
 490.932,    280.68 
 491.286,    264.97 
 491.639,    181.93 
 491.993,    202.13 
 492.346,    134.80 
 492.700,    186.42 
 493.053,    159.49 
 493.406,    107.87 
 493.759,    179.69 
 494.112,    215.60 
 494.466,    170.71 
 494.819,    130.31 
 495.172,    190.91 
 495.525,    181.93 
 495.878,    134.80 
 496.231,     94.40 
 496.583,     54.00 
 496.936,     96.65 
 497.289,    172.96 
 497.642,    119.09 
 497.994,    206.62 
 498.347,    278.44 
 498.700,    177.44 
 499.052,     78.69 
 499.405,    181.93 
 499.757,    137.05 
 500.110,     78.69 
 500.462,    195.40 
 500.814,    141.53 
 501.167,     60.74 
 501.519,     49.52 
 501.871,     80.94 
 502.223,     58.49 
 502.575,    238.04 
 502.928,    110.11 
 503.280,     87.67 
 503.632,     94.40 
 503.984,     36.05 
 504.335,    119.09 
 504.687,     98.89 
 505.039,    190.91 
 505.391,    116.85 
 505.743,    110.11 
 506.094,    163.98 
 506.446,    137.05 
 506.798,     89.91 
 507.149,     47.27 
 507.501,    105.62 
 507.852,     71.96 
 508.204,     89.91 
 508.555,     27.07 
 508.906,    150.51 
 509.258,     92.16 
 509.609,     71.96 
 509.960,     38.29 
 510.311,    116.85 
 510.663,    112.36 
 511.014,     76.45 
 511.365,    141.53 
 511.716,     69.72 
 512.067,     80.94 
 512.418,     58.49 
 512.768,     71.96 
 513.119,    163.98 
 513.470,     65.23 
 513.821,    155.00 
 514.171,    101.14 
 514.522,     94.40 
 514.873,    101.14 
 515.223,     87.67 
 515.574,     67.47 
 515.924,     62.98 
 516.275,     49.52 
 516.625,     69.72 
 516.975,     92.16 
 517.326,     83.18 
 517.676,    116.85 
 518.026,     76.45 
 518.376,    172.96 
 518.727,     76.45 
 519.077,     51.76 
 519.427,     62.98 
 519.777,    121.34 
 520.127,    121.34 
 520.477,     31.56 
 520.826,    159.49 
 521.176,     60.74 
 521.526,     69.72 
 521.876,    110.11 
 522.225,    119.09 
 522.575,    166.22 
 522.925,    114.60 
 523.274,     65.23 
 523.624,     65.23 
 523.973,     98.89 
 524.323,    119.09 
 524.672,      6.87 
 525.021,     83.18 
 525.371,     29.32 
 525.720,    128.07 
 526.069,     98.89 
 526.418,     98.89 
 526.767,     -8.84 
 527.117,     49.52 
 527.466,     47.27 
 527.815,     18.10 
 528.164,    110.11 
 528.512,     -4.35 
 528.861,    134.80 
 529.210,     31.56 
 529.559,     83.18 
 529.908,    130.31 
 530.256,     83.18 
 530.605,     76.45 
 530.954,    -26.79 
 531.302,    161.73 
 531.651,     89.91 
 531.999,      9.12 
 532.347,    121.34 
 532.696,     69.72 
 533.044,     78.69 
 533.392,    130.31 
 533.741,     98.89 
 534.089,     98.89 
 534.437,     94.40 
 534.785,    143.78 
 535.133,     29.32 
 535.481,     76.45 
 535.829,     29.32 
 536.177,    116.85 
 536.525,     87.67 
 536.873,     65.23 
 537.221,     85.43 
 537.568,     29.32 
 537.916,    101.14 
 538.264,     78.69 
 538.611,     42.78 
 538.959,     62.98 
 539.307,     83.18 
 539.654,    121.34 
 540.001,    159.49 
 540.349,    123.58 
 540.696,    186.42 
 541.044,    141.53 
 541.391,    184.18 
 541.738,    134.80 
 542.085,    155.00 
 542.432,     98.89 
 542.779,    110.11 
 543.126,    107.87 
 543.473,    155.00 
 543.820,     71.96 
 544.167,    119.09 
 544.514,     67.47 
 544.861,    114.60 
 545.208,     74.20 
 545.555,    121.34 
 545.901,     31.56 
 546.248,     33.81 
 546.595,     49.52 
 546.941,    103.38 
 547.288,     56.25 
 547.634,     65.23 
 547.980,     38.29 
 548.327,     98.89 
 548.673,    190.91 
 549.019,    157.24 
 549.366,     98.89 
 549.712,      9.12 
 550.058,     74.20 
 550.404,     51.76 
 550.750,    137.05 
 551.096,     62.98 
 551.442,     58.49 
 551.788,     49.52 
 552.134,    166.22 
 552.480,     31.56 
 552.826,     20.34 
 553.171,     80.94 
 553.517,     27.07 
 553.863,     78.69 
 554.208,     87.67 
 554.554,     92.16 
 554.900,     98.89 
 555.245,    170.71 
 555.590,    107.87 
 555.936,     92.16 
 556.281,    107.87 
 556.626,     71.96 
 556.972,     29.32 
 557.317,     89.91 
 557.662,     98.89 
 558.007,     62.98 
 558.352,    128.07 
 558.697,     67.47 
 559.042,    119.09 
 559.387,     85.43 
 559.732,     13.61 
 560.077,     69.72 
 560.422,     74.20 
 560.767,     49.52 
 561.111,     83.18 
 561.456,    110.11 
 561.801,     56.25 
 562.145,     92.16 
 562.490,    101.14 
 562.834,    134.80 
 563.179,    141.53 
 563.523,    143.78 
 563.867,     92.16 
 564.212,     78.69 
 564.556,    186.42 
 564.900,     69.72 
 565.244,     92.16 
 565.589,     74.20 
 565.933,     13.61 
 566.277,     76.45 
 566.621,     69.72 
 566.965,      6.87 
 567.309,     51.76 
 567.652,      4.63 
 567.996,      9.12 
 568.340,    128.07 
 568.684,    112.36 
 569.027,    166.22 
 569.371,     58.49 
 569.715,    132.56 
 570.058,     92.16 
 570.402,    152.76 
 570.745,    134.80 
 571.089,    193.15 
 571.432,    146.02 
 571.775,     98.89 
 572.119,     98.89 
 572.462,    186.42 
 572.805,    130.31 
 573.148,    202.13 
 573.491,    190.91 
 573.834,    152.76 
 574.177,    188.67 
 574.520,    264.97 
 574.863,    188.67 
 575.206,    231.31 
 575.549,     98.89 
 575.892,    139.29 
 576.234,    208.86 
 576.577,    179.69 
 576.920,    280.68 
 577.262,    233.55 
 577.605,    314.35 
 577.947,    215.60 
 578.290,    179.69 
 578.632,    289.66 
 578.975,    242.53 
 579.317,    238.04 
 579.659,    181.93 
 580.001,    208.86 
 580.344,    177.44 
 580.686,    300.88 
 581.028,    354.75 
 581.370,    244.77 
 581.712,    197.64 
 582.054,    226.82 
 582.396,    298.64 
 582.738,    399.63 
 583.079,    359.24 
 583.421,    325.57 
 583.763,    112.36 
 584.105,    186.42 
 584.446,    190.91 
 584.788,    186.42 
 585.129,    190.91 
 585.471,    238.04 
 585.812,    278.44 
 586.154,    258.24 
 586.495,    217.84 
 586.836,    222.33 
 587.178,    226.82 
 587.519,    163.98 
 587.860,    170.71 
 588.201,    179.69 
 588.542,    269.46 
 588.883,    235.80 
 589.224,    256.00 
 589.565,    224.58 
 589.906,    287.42 
 590.247,    155.00 
 590.588,    114.60 
 590.929,    125.82 
 591.269,    110.11 
 591.610,    137.05 
 591.951,    119.09 
 592.291,    161.73 
 592.632,    137.05 
 592.972,    213.35 
 593.313,    186.42 
 593.653,    181.93 
 593.993,    267.22 
 594.334,    332.30 
 594.674,    188.67 
 595.014,    224.58 
 595.354,    163.98 
 595.694,    215.60 
 596.034,    231.31 
 596.375,    195.40 
 596.714,    242.53 
 597.054,    159.49 
 597.394,    211.11 
 597.734,    195.40 
 598.074,    208.86 
 598.414,    188.67 
 598.753,    188.67 
 599.093,    197.64 
 599.433,    193.15 
 599.772,    166.22 
 600.112,    186.42 
 600.451,    199.89 
 600.791,    213.35 
 601.130,    224.58 
 601.469,    323.33 
 601.809,    332.30 
 602.148,    247.02 
 602.487,    206.62 
 602.826,    271.71 
 603.165,    251.51 
 603.504,    220.09 
 603.843,    186.42 
 604.182,    264.97 
 604.521,    175.20 
 604.860,    123.58 
 605.199,    224.58 
 605.538,    166.22 
 605.877,    134.80 
 606.215,    206.62 
 606.554,    199.89 
 606.892,    199.89 
 607.231,    150.51 
 607.570,    244.77 
 607.908,    231.31 
 608.246,    148.27 
 608.585,    128.07 
 608.923,    267.22 
 609.261,    217.84 
 609.600,    188.67 
 609.938,    181.93 
 610.276,    152.76 
 610.614,    137.05 
 610.952,    267.22 
 611.290,    217.84 
 611.628,    175.20 
 611.966,    116.85 
 612.304,    179.69 
 612.641,    143.78 
 612.979,    184.18 
 613.317,    186.42 
 613.655,    195.40 
 613.992,    134.80 
 614.330,    143.78 
 614.667,    159.49 
 615.005,     67.47 
 615.342,    155.00 
 615.680,    199.89 
 616.017,    262.73 
 616.354,    222.33 
 616.691,    345.77 
 617.029,    202.13 
 617.366,    112.36 
 617.703,     92.16 
 618.040,    141.53 
 618.377,    193.15 
 618.714,     74.20 
 619.051,     62.98 
 619.388,     69.72 
 619.725,    110.11 
 620.061,    114.60 
 620.398,     58.49 
 620.735,    119.09 
 621.071,    125.82 
 621.408,    150.51 
 621.745,     62.98 
 622.081,     65.23 
 622.417,     94.40 
 622.754,     92.16 
 623.090,    137.05 
 623.427,    150.51 
 623.763,    130.31 
 624.099,    128.07 
 624.435,     62.98 
 624.771,     92.16 
 625.107,    107.87 
 625.443,     74.20 
 625.779,     89.91 
 626.115,     36.05 
 626.451,     54.00 
 626.787,     80.94 
 627.123,     -4.35 
 627.459,     56.25 
 627.794,    134.80 
 628.130,     98.89 
 628.465,    146.02 
 628.801,    141.53 
 629.137,    184.18 
 629.472,    141.53 
 629.807,     54.00 
 630.143,    112.36 
 630.478,    141.53 
 630.813,    103.38 
 631.149,     76.45 
 631.484,     15.85 
 631.819,     -4.35 
 632.154,     65.23 
 632.489,      4.63 
 632.824,     54.00 
 633.159,    -35.77 
 633.494,      9.12 
 633.829,      9.12 
 634.164,     89.91 
 634.498,     38.29 
 634.833,     69.72 
 635.168,     31.56 
 635.502,    -35.77 
 635.837,     89.91 
 636.171,     13.61 
 636.506,     62.98 
 636.840,     80.94 
 637.175,    128.07 
 637.509,     11.36 
 637.843,     92.16 
 638.177,     78.69 
 638.512,     56.25 
 638.846,    119.09 
 639.180,     98.89 
 639.514,     83.18 
 639.848,     33.81 
 640.182,      9.12 
 640.516,     76.45 
 640.850,     18.10 
 641.183,     27.07 
 641.517,     33.81 
 641.851,    -15.57 
 642.184,      0.14 
 642.518,     22.58 
 642.852,     22.58 
 643.185,    103.38 
 643.519,    -26.79 
 643.852,    716.09 
 644.185,     80.94 
 644.519,     56.25 
 644.852,     87.67 
 645.185,     49.52 
 645.519,     65.23 
 645.852,    134.80 
 646.185,     67.47 
 646.518,    139.29 
 646.851,    150.51 
 647.184,     56.25 
 647.517,     56.25 
 647.849,     22.58 
 648.182,     45.03 
 648.515,     80.94 
 648.848,     58.49 
 649.180,     33.81 
 649.513,     54.00 
 649.846,    130.31 
 650.178,    150.51 
 650.511,    206.62 
 650.843,     89.91 
 651.175,    211.11 
 651.508,    114.60 
 651.840,    137.05 
 652.172,    211.11 
 652.504,    285.17 
 652.837,    316.59 
 653.169,    475.94 
 653.501,    359.24 
 653.833,    314.35 
 654.165,    381.68 
 654.496,    487.16 
 654.828,    529.81 
 655.160,    698.13 
 655.492,   1077.43 
 655.824,   1999.86 
 656.155,   8723.93 
 656.487,  62415.49 
 656.818,  64309.73 
 657.150,  64309.73 
 657.481,  64309.73 
 657.813,  32527.49 
 658.144,  12027.61 
 658.475,   5009.53 
 658.807,   2334.26 
 659.138,   1151.49 
 659.469,    832.79 
 659.800,    536.54 
 660.131,    383.92 
 660.462,    379.44 
 660.793,    269.46 
 661.124,    211.11 
 661.455,    222.33 
 661.786,    179.69 
 662.117,    233.55 
 662.448,    128.07 
 662.778,    195.40 
 663.109,    119.09 
 663.440,     85.43 
 663.770,     69.72 
 664.101,    112.36 
 664.431,     76.45 
 664.761,    103.38 
 665.092,    103.38 
 665.422,     54.00 
 665.752,    152.76 
 666.083,     22.58 
 666.413,     78.69 
 666.743,     94.40 
 667.073,    116.85 
 667.403,    130.31 
 667.733,    -40.26 
 668.063,      0.14 
 668.393,    -15.57 
 668.723,     54.00 
 669.052,     40.54 
 669.382,     38.29 
 669.712,     45.03 
 670.041,     62.98 
 670.371,     22.58 
 670.700,     74.20 
 671.030,     47.27 
 671.359,     20.34 
 671.689,    121.34 
 672.018,     18.10 
 672.347,     -4.35 
 672.677,     92.16 
 673.006,     29.32 
 673.335,      9.12 
 673.664,     69.72 
 673.993,    -20.06 
 674.322,    -38.01 
 674.651,     51.76 
 674.980,     94.40 
 675.309,     13.61 
 675.638,     27.07 
 675.966,     54.00 
 676.295,     76.45 
 676.624,     27.07 
 676.952,     -4.35 
 677.281,     20.34 
 677.610,     51.76 
 677.938,     62.98 
 678.266,     18.10 
 678.595,     20.34 
 678.923,    -35.77 
 679.251,     49.52 
 679.580,     40.54 
 679.908,    -24.55 
 680.236,     51.76 
 680.564,     36.05 
 680.892,     -8.84 
 681.220,     29.32 
 681.548,     40.54 
 681.876,      0.14 
 682.204,     56.25 
 682.531,    -15.57 
 682.859,     56.25 
 683.187,      4.63 
 683.514,     13.61 
 683.842,    -24.55 
 684.170,    -17.81 
 684.497,    -15.57 
 684.825,     56.25 
 685.152,     42.78 
 685.479,    103.38 
 685.807,     67.47 
 686.134,     22.58 
 686.461,      6.87 
 686.788,     31.56 
 687.115,     -8.84 
 687.442,     33.81 
 687.769,     -8.84 
 688.096,    -29.04 
 688.423,     47.27 
 688.750,    -53.72 
 689.077,     18.10 
 689.404,    -35.77 
 689.730,    -29.04 
 690.057,    -11.08 
 690.384,     56.25 
 690.710,     29.32 
 691.037,     51.76 
 691.363,     15.85 
 691.689,     87.67 
 692.016,     60.74 
 692.342,     62.98 
 692.668,     18.10 
 692.995,     15.85 
 693.321,     31.56 
 693.647,    105.62 
 693.973,     -2.10 
 694.299,     76.45 
 694.625,     62.98 
 694.951,    -58.21 
 695.277,      9.12 
 695.603,     15.85 
 695.928,     11.36 
 696.254,    125.82 
 696.580,     33.81 
 696.905,     22.58 
 697.231,      9.12 
 697.557,      4.63 
 697.882,      9.12 
 698.207,     33.81 
 698.533,      4.63 
 698.858,      9.12 
 699.183,     56.25 
 699.509,     42.78 
 699.834,    -13.33 
 700.159,     33.81 
 700.484,     85.43 
 700.809,     74.20 
 701.134,     33.81 
 701.459,    101.14 
 701.784,     15.85 
 702.109,     20.34 
 702.434,     -2.10 
 702.758,     87.67 
 703.083,      6.87 
 703.408,     20.34 
 703.732,     22.58 
 704.057,     54.00 
 704.381,     -8.84 
 704.706,    -31.28 
 705.030,      0.14 
 705.354,    -24.55 
 705.679,     36.05 
 706.003,      6.87 
 706.327,      2.38 
 706.651,   -105.34 
 706.975,    -20.06 
 707.299,     65.23 
 707.623,      9.12 
 707.947,    119.09 
 708.271,     56.25 
 708.595,     69.72 
 708.919,      2.38 
 709.243,     18.10 
 709.566,    -22.30 
 709.890,    -60.46 
 710.214,    -22.30 
 710.537,     58.49 
 710.861,     18.10 
 711.184,    -40.26 
 711.507,    -17.81 
 711.831,      0.14 
 712.154,    -40.26 
 712.477,     22.58 
 712.801,     40.54 
 713.124,     29.32 
 713.447,     49.52 
 713.770,     62.98 
 714.093,     33.81 
 714.416,     24.83 
 714.739,    -17.81 
 715.061,     31.56 
 715.384,    -13.33 
 715.707,     36.05 
 716.030,    -13.33 
 716.352,     71.96 
 716.675,     -6.59 
 716.998,    -31.28 
 717.320,    -22.30 
 717.642,     -8.84 
 717.965,      4.63 
 718.287,     89.91 
 718.610,     11.36 
 718.932,    -24.55 
 719.254,     24.83 
 719.576,     -6.59 
 719.898,     65.23 
 720.220,     31.56 
 720.542,    -29.04 
 720.864,     11.36 
 721.186,    -42.50 
 721.508,     24.83 
 721.830,     13.61 
 722.152,     42.78 
 722.473,     38.29 
 722.795,     11.36 
 723.116,     36.05 
 723.438,    -64.95 
 723.760,    -33.52 
 724.081,     45.03 
 724.402,     67.47 
 724.724,    -13.33 
 725.045,    -26.79 
 725.366,     29.32 
 725.687,     51.76 
 726.009,     24.83 
 726.330,     13.61 
 726.651,     54.00 
 726.972,     -8.84 
 727.293,     29.32 
 727.614,     60.74 
 727.934,     58.49 
 728.255,     92.16 
 728.576,     51.76 
 728.897,     33.81 
 729.217,     33.81 
 729.538,    -35.77 
 729.858,     20.34 
 730.179,      0.14 
 730.499,     38.29 
 730.820,    -17.81 
 731.140,     -6.59 
 731.460,     45.03 
 731.781,     -6.59 
 732.101,     56.25 
 732.421,     62.98 
 732.741,     62.98 
 733.061,     36.05 
 733.381,     45.03 
 733.701,     51.76 
 734.021,     60.74 
 734.341,    119.09 
 734.661,     40.54 
 734.980,      6.87 
 735.300,      9.12 
 735.620,     24.83 
 735.939,     54.00 
 736.259,      4.63 
 736.578,     45.03 
 736.898,      9.12 
 737.217,     40.54 
 737.536,    114.60 
 737.856,    -17.81 
 738.175,     -2.10 
 738.494,     -8.84 
 738.813,     33.81 
 739.132,    -11.08 
 739.451,    -33.52 
 739.770,     94.40 
 740.089,     76.45 
 740.408,     11.36 
 740.727,     67.47 
 741.046,    -58.21 
 741.364,     36.05 
 741.683,     18.10 
 742.002,     13.61 
 742.320,     31.56 
 742.639,     51.76 
 742.957,     -2.10 
 743.276,     15.85 
 743.594,    -22.30 
 743.912,     31.56 
 744.231,    -33.52 
 744.549,     -4.35 
 744.867,     -8.84 
 745.185,     27.07 
 745.503,     40.54 
 745.821,     71.96 
 746.139,     62.98 
 746.457,     18.10 
 746.775,    345.77 
 747.093,     -4.35 
 747.410,     -8.84 
 747.728,      9.12 
 748.046,     62.98 
 748.363,     38.29 
 748.681,    -17.81 
 748.998,      9.12 
 749.316,    -38.01 
 749.633,   -100.86 
 749.951,      4.63 
 750.268,    -26.79 
 750.585,     74.20 
 750.902,     31.56 
 751.220,     -8.84 
 751.537,    -40.26 
 751.854,    -26.79 
 752.171,     38.29 
 752.488,    -71.68 
 752.805,     40.54 
 753.121,     29.32 
 753.438,     18.10 
 753.755,     98.89 
 754.072,     27.07 
 754.388,     36.05 
 754.705,     40.54 
 755.021,     40.54 
 755.338,      9.12 
 755.654,     20.34 
 755.971,    -42.50 
 756.287,    -31.28 
 756.603,      6.87 
 756.919,      9.12 
 757.236,     60.74 
 757.552,     -6.59 
 757.868,     27.07 
 758.184,     45.03 
 758.500,      0.14 
 758.816,    -22.30 
 759.132,     40.54 
 759.447,     29.32 
 759.763,    -15.57 
 760.079,      4.63 
 760.395,     20.34 
 760.710,      0.14 
 761.026,    -29.04 
 761.341,    -38.01 
 761.657,    -38.01 
 761.972,     11.36 
 762.287,    110.11 
 762.603,     67.47 
 762.918,     47.27 
 763.233,     18.10 
 763.548,     47.27 
 763.863,    134.80 
 764.178,     27.07 
 764.493,    -53.72 
 764.808,     45.03 
 765.123,    -35.77 
 765.438,     27.07 
 765.753,     20.34 
 766.068,      0.14 
 766.382,     54.00 
 766.697,     65.23 
 767.011,    -31.28 
 767.326,    -31.28 
 767.640,      0.14 
 767.955,     31.56 
 768.269,     92.16 
 768.584,     83.18 
 768.898,    -42.50 
 769.212,     -6.59 
 769.526,     45.03 
 769.840,     40.54 
 770.154,     -4.35 
 770.468,     20.34 
 770.782,     78.69 
 771.096,      6.87 
 771.410,      2.38 
 771.724,     24.83 
 772.038,     62.98 
 772.351,    -26.79 
 772.665,     42.78 
 772.979,     54.00 
 773.292,      9.12 
 773.606,     71.96 
 773.919,     -4.35 
 774.232,      4.63 
 774.546,     96.65 
 774.859,    103.38 
 775.172,     36.05 
 775.486,     42.78 
 775.799,      0.14 
 776.112,    -11.08 
 776.425,    -40.26 
 776.738,     65.23 
 777.051,    224.58 
 777.364,    725.07 
 777.676,   1160.47 
 777.989,    904.61 
 778.302,    489.41 
 778.614,    332.30 
 778.927,    134.80 
 779.240,    215.60 
 779.552,     65.23 
 779.865,    567.96 
 780.177,     65.23 
 780.489,    -33.52 
 780.802,     58.49 
 781.114,    -49.24 
 781.426,     40.54 
 781.738,     27.07 
 782.050,    -38.01 
 782.362,     54.00 
 782.674,      6.87 
 782.986,    -17.81 
 783.298,     15.85 
 783.610,     20.34 
 783.922,     18.10 
 784.233,     11.36 
 784.545,     62.98 
 784.857,     22.58 
 785.168,    -26.79 
 785.480,    -24.55 
 785.791,    -40.26 
 786.103,    -46.99 
 786.414,    -22.30 
 786.725,     56.25 
 787.037,    -42.50 
 787.348,     42.78 
 787.659,    -22.30 
 787.970,    -17.81 
 788.281,     54.00 
 788.592,     11.36 
 788.903,    -55.97 
 789.214,      6.87 
 789.525,     29.32 
 789.836,      6.87 
 790.146,    -53.72 
 790.457,     31.56 
 790.768,     47.27 
 791.078,     27.07 
 791.389,     31.56 
 791.699,    -53.72 
 792.010,     29.32 
 792.320,     40.54 
 792.630,    -15.57 
 792.940,     65.23 
 793.251,     15.85 
 793.561,     96.65 
 793.871,     27.07 
 794.181,    -13.33 
 794.491,    -13.33 
 794.801,      4.63 
 795.111,     54.00 
 795.421,     31.56 
 795.730,     -8.84 
 796.040,     -8.84 
 796.350,     67.47 
 796.659,    -76.17 
 796.969,      4.63 
 797.279,    -76.17 
 797.588,     -4.35 
 797.897,    -13.33 
 798.207,    -29.04 
 798.516,    -33.52 
 798.825,    -20.06 
 799.135,      4.63 
 799.444,     13.61 
 799.753,     -4.35 
 800.062,     74.20 
 800.371,     20.34 
 800.680,     33.81 
 800.989,      0.14 
 801.298,    -60.46 
 801.606,     13.61 
 801.915,    -11.08 
 802.224,     -8.84 
 802.532,    -49.24 
 802.841,     22.58 
 803.149,    -69.43 
 803.458,    -26.79 
 803.766,    -20.06 
 804.075,     -8.84 
 804.383,    -38.01 
 804.691,     -6.59 
 804.999,    -71.68 
 805.308,     42.78 
 805.616,     20.34 
 805.924,    -73.92 
 806.232,      4.63 
 806.540,     36.05 
 806.848,    -55.97 
 807.155,    105.62 
 807.463,    -49.24 
 807.771,     20.34 
 808.079,    -11.08 
 808.386,    -15.57 
 808.694,     20.34 
 809.001,    -26.79 
 809.309,    -11.08 
 809.616,     18.10 
 809.924,     36.05 
 810.231,    -15.57 
 810.538,     27.07 
 810.845,      6.87 
 811.152,    -31.28 
 811.460,    -42.50 
 811.767,    -33.52 
 812.074,    -89.63 
 812.380,    -17.81 
 812.687,     42.78 
 812.994,     22.58 
 813.301,     11.36 
 813.608,     42.78 
 813.914,     18.10 
 814.221,     20.34 
 814.527,     -4.35 
 814.834,    -87.39 
 815.140,    -26.79 
 815.447,     -6.59 
 815.753,     13.61 
 816.059,     51.76 
 816.366,     24.83 
 816.672,      4.63 
 816.978,    -55.97 
 817.284,    -91.88 
 817.590,    -73.92 
 817.896,    -26.79 
 818.202,    -24.55 
 818.508,     31.56 
 818.814,    -69.43 
 819.119,    -31.28 
 819.425,    -53.72 
 819.731,      9.12 
 820.036,    -13.33 
 820.342,     -6.59 
 820.647,     45.03 
 820.953,     42.78 
 821.258,     74.20 
 821.564,    -11.08 
 821.869,     13.61 
 822.174,    -55.97 
 822.479,     31.56 
 822.784,    -96.37 
 823.089,    -20.06 
 823.394,    -29.04 
 823.699,    -42.50 
 824.004,     18.10 
 824.309,     40.54 
 824.614,     38.29 
 824.919,    -13.33 
 825.223,    -42.50 
 825.528,    -13.33 
 825.833,     -2.10 
 826.137,      2.38 
 826.442,    -17.81 
 826.746,     -8.84 
 827.050,     18.10 
 827.355,    -78.41 
 827.659,     42.78 
 827.963,     54.00 
 828.267,     31.56 
 828.571,    -58.21 
 828.875,     45.03 
 829.179,    -13.33 
 829.483,    -29.04 
 829.787,    -35.77 
 830.091,    -62.70 
 830.395,    -24.55 
 830.699,    -15.57 
 831.002,    -42.50 
 831.306,    -35.77 
 831.609,    -62.70 
 831.913,    -22.30 
 832.216,     56.25 
 832.520,     18.10 
 832.823,     11.36 
 833.126,     74.20 
 833.430,     31.56 
 833.733,      6.87 
 834.036,     18.10 
 834.339,     22.58 
 834.642,     -2.10 
 834.945,    -87.39 
 835.248,      6.87 
 835.551,     56.25 
 835.854,    -17.81 
 836.156,     -2.10 
 836.459,    -60.46 
 836.762,    -53.72 
 837.064,     36.05 
 837.367,      0.14 
 837.669,    -31.28 
 837.972,    -58.21 
 838.274,     -2.10 
 838.576,     29.32 
 838.879,     33.81 
 839.181,     -4.35 
 839.483,     -2.10 
 839.785,    -24.55 
 840.087,    -11.08 
 840.389,     36.05 
 840.691,    -24.55 
 840.993,    -67.19 
 841.295,     11.36 
 841.597,    -20.06 
 841.898,     40.54 
 842.200,     69.72 
 842.502,    -31.28 
 842.803,      2.38 
 843.105,      9.12 
 843.406,     -8.84 
 843.708,    -31.28 
 844.009,    -11.08 
 844.310,    -44.75 
 844.611,    -40.26 
 844.913,     -6.59 
 845.214,    157.24 
 845.515,    186.42 
 845.816,    114.60 
 846.117,     92.16 
 846.418,    107.87 
 846.719,     29.32 
 847.019,     58.49 
 847.320,     20.34 
 847.621,     13.61 
 847.921,    -17.81 
 848.222,     -6.59 
 848.523,     15.85 
 848.823,    -22.30 
 849.123,    -64.95 
 849.424,    -22.30 
 849.724,    -44.75 
 850.024,    -24.55 
 850.325,    -38.01 
 850.625,    -51.48 
 850.925,    -33.52 
 851.225,    -64.95 
 851.525,     42.78 
 851.825,     54.00 
 852.125,     11.36 
 852.425,    -33.52 
 852.724,    -11.08 
 853.024,     74.20 
 853.324,     27.07 
 853.623,     49.52 
 853.923,     24.83 
 854.222,     -4.35 
 854.522,      4.63 
 854.821,     45.03 
 855.120,    -22.30 
 855.420,    -35.77 
 855.719,     -8.84 
 856.018,     45.03 
 856.317,    -38.01 
 856.616,    -40.26 
 856.915,     36.05 
 857.214,     11.36 
 857.513,     18.10 
 857.812,     15.85 
 858.111,    -58.21 
 858.409,    -22.30 
 858.708,      6.87 
 859.007,     11.36 
 859.305,      4.63 
 859.604,     45.03 
 859.902,     15.85 
 860.201,    -62.70 
 860.499,    -35.77 
 860.797,    -15.57 
 861.096,     33.81 
 861.394,     11.36 
 861.692,      4.63 
 861.990,     15.85 
 862.288,    -29.04 
 862.586,    -44.75 
 862.884,    -55.97 
 863.182,     22.58 
 863.479,    -13.33 
 863.777,     18.10 
 864.075,    -53.72 
 864.373,    -49.24 
 864.670,     -2.10 
 864.968,      4.63 
 865.265,    -24.55 
 865.563,     -4.35 
 865.860,     76.45 
 866.157,     -4.35 
 866.454,    -29.04 
 866.752,    -11.08 
 867.049,    -13.33 
 867.346,     15.85 
 867.643,     22.58 
 867.940,     13.61 
 868.237,      0.14 
 868.534,    -11.08 
 868.830,    -38.01 
 869.127,    -40.26 
 869.424,     13.61 
 869.720,    -49.24 
 870.017,     24.83 
 870.314,    -55.97 
 870.610,      9.12 
 870.906,    -31.28 
 871.203,     18.10 
 871.499,     40.54 
 871.795,      9.12 
 872.092,     -8.84 
 872.388,     27.07 
 872.684,    -22.30 
 872.980,    -31.28 
 873.276,    -29.04 
 873.572,    -46.99 
 873.868,      0.14 
 874.163,    -38.01 
 874.459,      6.87 
 874.755,      4.63 
 875.051,     -8.84 
 875.346,    -35.77 
 875.642,    -24.55 
 875.937,     36.05 
 876.233,    -13.33 
 876.528,    -29.04 
 876.823,     80.94 
 877.119,      6.87 
 877.414,    -44.75 
 877.709,     22.58 
 878.004,    -24.55 
 878.299,    -42.50 
 878.594,    -42.50 
 878.889,     18.10 
 879.184,      9.12 
 879.479,      2.38 
 879.773,    -55.97 
 880.068,    -33.52 
 880.363,     -4.35 
 880.657,    -24.55 
 880.952,     -8.84 
 881.246,    -42.50 
