Wavelength,Intensity
 177.185,    -83.60 
 177.571,    -83.60 
 177.957,    -83.60 
 178.343,    -43.20 
 178.729,   -103.80 
 179.115,    -52.18 
 179.500,     64.53 
 179.886,     33.10 
 180.272,     15.15 
 180.658,     44.33 
 181.043,     48.81 
 181.429,     42.08 
 181.815,     46.57 
 182.200,    -11.78 
 182.586,    -25.25 
 182.972,     26.37 
 183.357,     44.33 
 183.743,    -45.45 
 184.128,    -83.60 
 184.513,     21.88 
 184.899,    -27.49 
 185.284,    -16.27 
 185.670,    -16.27 
 186.055,    -63.40 
 186.440,      8.42 
 186.825,     10.66 
 187.210,    -40.96 
 187.596,    -63.40 
 187.981,    -16.27 
 188.366,     28.62 
 188.751,    -23.00 
 189.136,    -79.11 
 189.521,     15.15 
 189.906,    -31.98 
 190.291,    -56.67 
 190.676,     39.84 
 191.060,     35.35 
 191.445,    -61.16 
 191.830,    -56.67 
 192.215,    -25.25 
 192.599,     44.33 
 192.984,    -29.74 
 193.369,    -58.91 
 193.753,    -16.27 
 194.138,    -31.98 
 194.522,    -43.20 
 194.907,   -117.27 
 195.291,    -67.89 
 195.676,    -47.69 
 196.060,    -31.98 
 196.445,     -9.54 
 196.829,    -76.87 
 197.213,    -65.65 
 197.597,     15.15 
 197.982,     -2.81 
 198.366,      3.93 
 198.750,    -63.40 
 199.134,    -54.43 
 199.518,     35.35 
 199.902,    -11.78 
 200.286,     -0.56 
 200.670,    -16.27 
 201.054,    -20.76 
 201.438,    -38.72 
 201.822,     -7.29 
 202.206,    -81.36 
 202.590,    -63.40 
 202.973,     30.86 
 203.357,   -110.53 
 203.741,    -36.47 
 204.124,    -31.98 
 204.508,     -0.56 
 204.892,    -61.16 
 205.275,    -45.45 
 205.659,     -2.81 
 206.042,     77.99 
 206.426,    -11.78 
 206.809,     -9.54 
 207.193,    -40.96 
 207.576,    -38.72 
 207.959,     12.91 
 208.342,     21.88 
 208.726,    -76.87 
 209.109,    -20.76 
 209.492,     19.64 
 209.875,    -56.67 
 210.258,     19.64 
 210.641,     80.24 
 211.025,    -16.27 
 211.408,    -20.76 
 211.790,    -14.03 
 212.173,    -54.43 
 212.556,    -20.76 
 212.939,    -14.03 
 213.322,    -25.25 
 213.705,    -49.94 
 214.088,    -23.00 
 214.470,    -14.03 
 214.853,    -31.98 
 215.236,     42.08 
 215.618,   -103.80 
 216.001,    -31.98 
 216.383,    -14.03 
 216.766,     17.39 
 217.148,     53.30 
 217.531,    -18.52 
 217.913,     -2.81 
 218.296,    -23.00 
 218.678,     19.64 
 219.060,    -88.09 
 219.443,    -61.16 
 219.825,    -25.25 
 220.207,    -43.20 
 220.589,    -52.18 
 220.971,    -27.49 
 221.353,      3.93 
 221.735,    -31.98 
 222.118,    -58.91 
 222.500,    -45.45 
 222.881,    -25.25 
 223.263,      8.42 
 223.645,   -117.27 
 224.027,   -101.56 
 224.409,     48.81 
 224.791,    -25.25 
 225.172,    -23.00 
 225.554,      1.68 
 225.936,    -70.14 
 226.317,    -31.98 
 226.699,    -65.65 
 227.081,     80.24 
 227.462,    -52.18 
 227.844,    -63.40 
 228.225,    -74.62 
 228.607,     -9.54 
 228.988,    -38.72 
 229.369,    -49.94 
 229.751,    -52.18 
 230.132,     35.35 
 230.513,    -18.52 
 230.894,     10.66 
 231.276,    -16.27 
 231.657,    -27.49 
 232.038,     10.66 
 232.419,    -14.03 
 232.800,     39.84 
 233.181,    -14.03 
 233.562,     30.86 
 233.943,    -72.38 
 234.324,    -56.67 
 234.705,    -40.96 
 235.085,    -29.74 
 235.466,      1.68 
 235.847,    -49.94 
 236.228,    -47.69 
 236.608,     35.35 
 236.989,     19.64 
 237.370,    -43.20 
 237.750,    -29.74 
 238.131,    -27.49 
 238.511,    -49.94 
 238.892,     -5.05 
 239.272,    -40.96 
 239.653,    -54.43 
 240.033,    -14.03 
 240.413,    -18.52 
 240.794,     -2.81 
 241.174,    -11.78 
 241.554,    -11.78 
 241.934,     15.15 
 242.314,     -7.29 
 242.694,      3.93 
 243.075,    -58.91 
 243.455,    -58.91 
 243.835,    -16.27 
 244.215,      8.42 
 244.595,     10.66 
 244.974,    -70.14 
 245.354,    -20.76 
 245.734,    -23.00 
 246.114,     -9.54 
 246.494,    -49.94 
 246.873,    -79.11 
 247.253,    -63.40 
 247.633,    -74.62 
 248.012,     -9.54 
 248.392,    -18.52 
 248.771,    -29.74 
 249.151,    -58.91 
 249.530,     26.37 
 249.910,    -23.00 
 250.289,    -74.62 
 250.669,     30.86 
 251.048,    -11.78 
 251.427,     -5.05 
 251.806,     -2.81 
 252.186,     15.15 
 252.565,     -7.29 
 252.944,     24.13 
 253.323,    -25.25 
 253.702,     -5.05 
 254.081,     12.91 
 254.460,    -34.23 
 254.839,     19.64 
 255.218,     21.88 
 255.597,     24.13 
 255.976,    -16.27 
 256.355,     10.66 
 256.733,     19.64 
 257.112,    -54.43 
 257.491,     -7.29 
 257.870,   -110.53 
 258.248,    -67.89 
 258.627,    -23.00 
 259.005,    -40.96 
 259.384,     42.08 
 259.762,     33.10 
 260.141,    -63.40 
 260.519,    -67.89 
 260.898,     -0.56 
 261.276,    -63.40 
 261.654,     -9.54 
 262.033,    -11.78 
 262.411,    -34.23 
 262.789,    -20.76 
 263.167,     -2.81 
 263.545,    -20.76 
 263.924,    -92.58 
 264.302,    -23.00 
 264.680,   -101.56 
 265.058,      1.68 
 265.436,    -34.23 
 265.813,     21.88 
 266.191,     -9.54 
 266.569,    -92.58 
 266.947,    -16.27 
 267.325,     -7.29 
 267.702,    -18.52 
 268.080,    -34.23 
 268.458,    -72.38 
 268.835,     15.15 
 269.213,     15.15 
 269.591,    -36.47 
 269.968,    -14.03 
 270.346,     19.64 
 270.723,    -25.25 
 271.100,      3.93 
 271.478,    -47.69 
 271.855,    -16.27 
 272.232,    -94.82 
 272.610,    -97.07 
 272.987,     -9.54 
 273.364,    -23.00 
 273.741,     39.84 
 274.118,     -9.54 
 274.495,    -31.98 
 274.872,     21.88 
 275.249,    -20.76 
 275.626,    -61.16 
 276.003,    -14.03 
 276.380,    -31.98 
 276.757,    -11.78 
 277.134,    -40.96 
 277.511,    -29.74 
 277.887,     -2.81 
 278.264,     -7.29 
 278.641,    -47.69 
 279.018,     26.37 
 279.394,     -7.29 
 279.771,    -29.74 
 280.147,     30.86 
 280.524,     15.15 
 280.900,     37.59 
 281.277,     89.21 
 281.653,     -0.56 
 282.029,     10.66 
 282.406,    -58.91 
 282.782,      6.17 
 283.158,     21.88 
 283.534,     -7.29 
 283.910,     17.39 
 284.287,    -29.74 
 284.663,    -74.62 
 285.039,    -79.11 
 285.415,      8.42 
 285.791,     26.37 
 286.167,    -49.94 
 286.542,    -16.27 
 286.918,    -61.16 
 287.294,    -27.49 
 287.670,    -23.00 
 288.046,    -67.89 
 288.421,    -43.20 
 288.797,      8.42 
 289.173,     -2.81 
 289.548,     -7.29 
 289.924,     46.57 
 290.299,     -7.29 
 290.675,     26.37 
 291.050,      3.93 
 291.426,    -29.74 
 291.801,     51.06 
 292.177,    -25.25 
 292.552,    -47.69 
 292.927,     -2.81 
 293.302,     35.35 
 293.678,     51.06 
 294.053,     42.08 
 294.428,    -27.49 
 294.803,      6.17 
 295.178,    -58.91 
 295.553,    -88.09 
 295.928,     17.39 
 296.303,    -27.49 
 296.678,    -16.27 
 297.053,     44.33 
 297.427,      6.17 
 297.802,      3.93 
 298.177,     -7.29 
 298.552,     55.55 
 298.926,     33.10 
 299.301,    -25.25 
 299.676,     30.86 
 300.050,      8.42 
 300.425,     -7.29 
 300.799,     53.30 
 301.174,    -43.20 
 301.548,    -11.78 
 301.922,     -2.81 
 302.297,     28.62 
 302.671,     39.84 
 303.045,     39.84 
 303.420,     24.13 
 303.794,     39.84 
 304.168,     39.84 
 304.542,     80.24 
 304.916,     66.77 
 305.290,     -0.56 
 305.664,     64.53 
 306.038,     44.33 
 306.412,     62.28 
 306.786,    125.12 
 307.160,     93.70 
 307.534,     51.06 
 307.907,    286.72 
 308.281,    286.72 
 308.655,    389.96 
 309.028,    470.75 
 309.402,    587.46 
 309.776,    549.30 
 310.149,    547.06 
 310.523,    464.02 
 310.896,    448.31 
 311.270,    363.02 
 311.643,    403.42 
 312.016,    340.58 
 312.390,    403.42 
 312.763,    511.15 
 313.136,    380.98 
 313.509,    336.09 
 313.883,    425.87 
 314.256,    428.11 
 314.629,    403.42 
 315.002,    392.20 
 315.375,    372.00 
 315.748,    380.98 
 316.121,    322.63 
 316.494,    347.31 
 316.867,    286.72 
 317.240,    250.81 
 317.612,    205.92 
 317.985,    219.39 
 318.358,    259.78 
 318.730,    268.76 
 319.103,    257.54 
 319.476,    170.01 
 319.848,    210.41 
 320.221,    158.79 
 320.593,    120.63 
 320.966,    167.77 
 321.338,    118.39 
 321.711,    138.59 
 322.083,     98.19 
 322.455,    152.05 
 322.828,    149.81 
 323.200,    152.05 
 323.572,     62.28 
 323.944,     33.10 
 324.316,     62.28 
 324.688,    104.92 
 325.060,    116.15 
 325.432,     57.79 
 325.804,    149.81 
 326.176,    104.92 
 326.548,     53.30 
 326.920,     66.77 
 327.292,     71.26 
 327.664,     84.72 
 328.035,    111.66 
 328.407,     24.13 
 328.779,     89.21 
 329.150,     12.91 
 329.522,     10.66 
 329.893,     39.84 
 330.265,     28.62 
 330.636,     80.24 
 331.008,     51.06 
 331.379,     80.24 
 331.750,    -52.18 
 332.122,     48.81 
 332.493,     82.48 
 332.864,     19.64 
 333.236,    140.83 
 333.607,     69.01 
 333.978,      8.42 
 334.349,     64.53 
 334.720,      6.17 
 335.091,    134.10 
 335.462,    120.63 
 335.833,     30.86 
 336.204,     75.75 
 336.575,      6.17 
 336.945,      3.93 
 337.316,     57.79 
 337.687,     53.30 
 338.058,     24.13 
 338.428,    109.41 
 338.799,     80.24 
 339.169,    107.17 
 339.540,     21.88 
 339.911,     57.79 
 340.281,    104.92 
 340.651,    118.39 
 341.022,     95.95 
 341.392,     48.81 
 341.762,     71.26 
 342.133,    100.43 
 342.503,     86.97 
 342.873,     28.62 
 343.243,     71.26 
 343.613,     91.46 
 343.984,     86.97 
 344.354,     57.79 
 344.724,     75.75 
 345.094,     95.95 
 345.464,    104.92 
 345.833,     33.10 
 346.203,     80.24 
 346.573,     98.19 
 346.943,     35.35 
 347.313,     66.77 
 347.682,     30.86 
 348.052,     71.26 
 348.422,     30.86 
 348.791,     55.55 
 349.161,     75.75 
 349.530,     77.99 
 349.900,     53.30 
 350.269,     64.53 
 350.638,    129.61 
 351.008,     51.06 
 351.377,    149.81 
 351.746,    127.37 
 352.116,     39.84 
 352.485,     35.35 
 352.854,     89.21 
 353.223,     42.08 
 353.592,     -5.05 
 353.961,     75.75 
 354.330,     53.30 
 354.699,     89.21 
 355.068,     55.55 
 355.437,     80.24 
 355.806,     55.55 
 356.175,    -14.03 
 356.543,     21.88 
 356.912,     53.30 
 357.281,     69.01 
 357.650,     82.48 
 358.018,     44.33 
 358.387,     53.30 
 358.755,    -11.78 
 359.124,     28.62 
 359.492,     26.37 
 359.861,      3.93 
 360.229,     26.37 
 360.597,     51.06 
 360.966,    127.37 
 361.334,     48.81 
 361.702,     55.55 
 362.070,     89.21 
 362.438,     80.24 
 362.807,     89.21 
 363.175,     15.15 
 363.543,     66.77 
 363.911,     95.95 
 364.279,     89.21 
 364.646,     60.04 
 365.014,      3.93 
 365.382,     44.33 
 365.750,     69.01 
 366.118,     17.39 
 366.485,     35.35 
 366.853,     33.10 
 367.221,    118.39 
 367.588,      3.93 
 367.956,      6.17 
 368.323,     57.79 
 368.691,      8.42 
 369.058,     33.10 
 369.426,    120.63 
 369.793,     75.75 
 370.160,     55.55 
 370.528,     42.08 
 370.895,    111.66 
 371.262,     77.99 
 371.629,     24.13 
 371.996,     71.26 
 372.363,     64.53 
 372.730,     55.55 
 373.097,     71.26 
 373.464,     44.33 
 373.831,    134.10 
 374.198,     60.04 
 374.565,     82.48 
 374.932,     53.30 
 375.299,    149.81 
 375.665,     84.72 
 376.032,     42.08 
 376.399,     89.21 
 376.765,     53.30 
 377.132,     98.19 
 377.498,    111.66 
 377.865,     51.06 
 378.231,     66.77 
 378.598,     60.04 
 378.964,    111.66 
 379.331,     95.95 
 379.697,     51.06 
 380.063,     51.06 
 380.429,    147.57 
 380.795,     53.30 
 381.162,     60.04 
 381.528,     91.46 
 381.894,     46.57 
 382.260,     62.28 
 382.626,     89.21 
 382.992,     39.84 
 383.358,     69.01 
 383.723,    113.90 
 384.089,     53.30 
 384.455,     48.81 
 384.821,    111.66 
 385.186,     39.84 
 385.552,     44.33 
 385.918,     46.57 
 386.283,     77.99 
 386.649,     62.28 
 387.014,      8.42 
 387.380,      6.17 
 387.745,    -18.52 
 388.111,     53.30 
 388.476,     15.15 
 388.841,    107.17 
 389.206,     91.46 
 389.572,     57.79 
 389.937,     89.21 
 390.302,     98.19 
 390.667,     42.08 
 391.032,     35.35 
 391.397,     60.04 
 391.762,     98.19 
 392.127,     75.75 
 392.492,    -23.00 
 392.857,     12.91 
 393.222,    -20.76 
 393.587,     44.33 
 393.951,     93.70 
 394.316,     77.99 
 394.681,     55.55 
 395.045,     60.04 
 395.410,     71.26 
 395.774,     15.15 
 396.139,     69.01 
 396.503,     46.57 
 396.868,     82.48 
 397.232,     75.75 
 397.596,     55.55 
 397.961,    183.48 
 398.325,    154.30 
 398.689,    178.99 
 399.053,     69.01 
 399.418,     77.99 
 399.782,     64.53 
 400.146,     46.57 
 400.510,     77.99 
 400.874,     55.55 
 401.238,    156.54 
 401.602,    100.43 
 401.965,     21.88 
 402.329,     35.35 
 402.693,     95.95 
 403.057,     21.88 
 403.420,     77.99 
 403.784,     35.35 
 404.148,     24.13 
 404.511,     42.08 
 404.875,     30.86 
 405.238,     51.06 
 405.602,     39.84 
 405.965,     57.79 
 406.329,     35.35 
 406.692,     75.75 
 407.055,     60.04 
 407.418,     93.70 
 407.782,    -14.03 
 408.145,     64.53 
 408.508,     71.26 
 408.871,     71.26 
 409.234,      6.17 
 409.597,     44.33 
 409.960,    100.43 
 410.323,     48.81 
 410.686,    109.41 
 411.049,    430.35 
 411.412,    488.71 
 411.774,    342.82 
 412.137,     91.46 
 412.500,     -0.56 
 412.862,     80.24 
 413.225,     39.84 
 413.588,     15.15 
 413.950,     66.77 
 414.313,     91.46 
 414.675,     51.06 
 415.037,     64.53 
 415.400,     15.15 
 415.762,     86.97 
 416.124,     84.72 
 416.487,     66.77 
 416.849,     60.04 
 417.211,    111.66 
 417.573,    120.63 
 417.935,     42.08 
 418.297,    -58.91 
 418.659,     62.28 
 419.021,    -23.00 
 419.383,     19.64 
 419.745,     64.53 
 420.107,     53.30 
 420.469,     75.75 
 420.830,    -56.67 
 421.192,    104.92 
 421.554,     53.30 
 421.915,     -2.81 
 422.277,     73.50 
 422.638,    -36.47 
 423.000,     57.79 
 423.361,     77.99 
 423.723,     86.97 
 424.084,     42.08 
 424.446,      3.93 
 424.807,     93.70 
 425.168,     35.35 
 425.529,    -49.94 
 425.891,     48.81 
 426.252,     24.13 
 426.613,     89.21 
 426.974,     46.57 
 427.335,     46.57 
 427.696,      6.17 
 428.057,     30.86 
 428.418,     39.84 
 428.778,    -11.78 
 429.139,     39.84 
 429.500,      3.93 
 429.861,     51.06 
 430.221,     42.08 
 430.582,     82.48 
 430.943,     30.86 
 431.303,     -7.29 
 431.664,     69.01 
 432.024,    116.15 
 432.385,     75.75 
 432.745,    -18.52 
 433.105,     44.33 
 433.466,     -7.29 
 433.826,     44.33 
 434.186,    183.48 
 434.546,    448.31 
 434.907,   1063.26 
 435.267,   2046.29 
 435.627,   1175.48 
 435.987,    304.67 
 436.347,     21.88 
 436.707,     37.59 
 437.067,     42.08 
 437.427,    143.08 
 437.786,     53.30 
 438.146,     93.70 
 438.506,     86.97 
 438.866,     91.46 
 439.225,     77.99 
 439.585,    102.68 
 439.944,     -5.05 
 440.304,    -11.78 
 440.663,     12.91 
 441.023,     53.30 
 441.382,      8.42 
 441.742,    122.88 
 442.101,    -25.25 
 442.460,     39.84 
 442.820,     42.08 
 443.179,     42.08 
 443.538,     51.06 
 443.897,     24.13 
 444.256,     57.79 
 444.615,    136.34 
 444.974,     44.33 
 445.333,    111.66 
 445.692,     28.62 
 446.051,    127.37 
 446.410,     -2.81 
 446.768,     91.46 
 447.127,     53.30 
 447.486,     30.86 
 447.845,    113.90 
 448.203,     19.64 
 448.562,     77.99 
 448.920,    131.86 
 449.279,     91.46 
 449.637,    -31.98 
 449.996,      8.42 
 450.354,    -31.98 
 450.712,     21.88 
 451.071,     39.84 
 451.429,     66.77 
 451.787,    -38.72 
 452.145,     69.01 
 452.503,     66.77 
 452.861,     44.33 
 453.219,     53.30 
 453.577,     42.08 
 453.935,     30.86 
 454.293,     24.13 
 454.651,     24.13 
 455.009,      8.42 
 455.367,     64.53 
 455.725,     39.84 
 456.082,     12.91 
 456.440,     62.28 
 456.798,     28.62 
 457.155,     51.06 
 457.513,      8.42 
 457.870,    -45.45 
 458.228,    -16.27 
 458.585,    -18.52 
 458.942,     60.04 
 459.300,     33.10 
 459.657,     24.13 
 460.014,     55.55 
 460.371,     -7.29 
 460.729,     -2.81 
 461.086,     35.35 
 461.443,    -14.03 
 461.800,    -56.67 
 462.157,    -16.27 
 462.514,      6.17 
 462.871,     95.95 
 463.227,     77.99 
 463.584,    -20.76 
 463.941,     42.08 
 464.298,    -11.78 
 464.655,     39.84 
 465.011,    -18.52 
 465.368,    -47.69 
 465.724,     -9.54 
 466.081,     33.10 
 466.437,     69.01 
 466.794,     57.79 
 467.150,    116.15 
 467.507,    138.59 
 467.863,     51.06 
 468.219,    -47.69 
 468.575,     55.55 
 468.932,     39.84 
 469.288,      3.93 
 469.644,    107.17 
 470.000,     24.13 
 470.356,     33.10 
 470.712,     12.91 
 471.068,     57.79 
 471.424,     26.37 
 471.780,     17.39 
 472.135,     19.64 
 472.491,     39.84 
 472.847,     66.77 
 473.203,    -20.76 
 473.558,     30.86 
 473.914,     82.48 
 474.269,     -5.05 
 474.625,     53.30 
 474.980,     19.64 
 475.336,    -31.98 
 475.691,    107.17 
 476.046,     -9.54 
 476.402,     35.35 
 476.757,     39.84 
 477.112,     55.55 
 477.467,     89.21 
 477.823,     19.64 
 478.178,     -0.56 
 478.533,      8.42 
 478.888,     98.19 
 479.243,    129.61 
 479.598,     48.81 
 479.952,    116.15 
 480.307,     42.08 
 480.662,    -31.98 
 481.017,     44.33 
 481.372,     15.15 
 481.726,     73.50 
 482.081,    111.66 
 482.435,     66.77 
 482.790,    -18.52 
 483.144,     91.46 
 483.499,     53.30 
 483.853,     82.48 
 484.208,     60.04 
 484.562,    145.32 
 484.916,     86.97 
 485.270,     84.72 
 485.625,    120.63 
 485.979,    190.21 
 486.333,    915.13 
 486.687,   4346.74 
 487.041,  13523.89 
 487.395,  21450.93 
 487.749,   7403.55 
 488.103,   2068.73 
 488.457,    553.79 
 488.810,    322.63 
 489.164,     86.97 
 489.518,    129.61 
 489.872,     98.19 
 490.225,    109.41 
 490.579,     30.86 
 490.932,    111.66 
 491.286,     95.95 
 491.639,     80.24 
 491.993,     46.57 
 492.346,     89.21 
 492.700,    102.68 
 493.053,     39.84 
 493.406,      3.93 
 493.759,     51.06 
 494.112,     66.77 
 494.466,    -11.78 
 494.819,     62.28 
 495.172,     42.08 
 495.525,     28.62 
 495.878,     35.35 
 496.231,     95.95 
 496.583,     -0.56 
 496.936,     62.28 
 497.289,     71.26 
 497.642,     39.84 
 497.994,     89.21 
 498.347,     69.01 
 498.700,     75.75 
 499.052,     28.62 
 499.405,     75.75 
 499.757,     48.81 
 500.110,     55.55 
 500.462,     55.55 
 500.814,     -7.29 
 501.167,     33.10 
 501.519,     53.30 
 501.871,     42.08 
 502.223,     37.59 
 502.575,     60.04 
 502.928,      6.17 
 503.280,     -2.81 
 503.632,     89.21 
 503.984,     62.28 
 504.335,    100.43 
 504.687,     86.97 
 505.039,     42.08 
 505.391,     -7.29 
 505.743,     46.57 
 506.094,     53.30 
 506.446,    122.88 
 506.798,     66.77 
 507.149,     51.06 
 507.501,      3.93 
 507.852,     21.88 
 508.204,    -31.98 
 508.555,     35.35 
 508.906,    -27.49 
 509.258,     57.79 
 509.609,     10.66 
 509.960,      3.93 
 510.311,    -49.94 
 510.663,     30.86 
 511.014,    -29.74 
 511.365,     30.86 
 511.716,    -18.52 
 512.067,     71.26 
 512.418,     33.10 
 512.768,    109.41 
 513.119,     75.75 
 513.470,     75.75 
 513.821,     84.72 
 514.171,     75.75 
 514.522,     73.50 
 514.873,     51.06 
 515.223,     -5.05 
 515.574,     -2.81 
 515.924,     24.13 
 516.275,     19.64 
 516.625,     46.57 
 516.975,     46.57 
 517.326,     42.08 
 517.676,     17.39 
 518.026,     44.33 
 518.376,     10.66 
 518.727,     60.04 
 519.077,     26.37 
 519.427,    -56.67 
 519.777,     10.66 
 520.127,     44.33 
 520.477,     33.10 
 520.826,     80.24 
 521.176,      8.42 
 521.526,    -11.78 
 521.876,     51.06 
 522.225,    -92.58 
 522.575,     75.75 
 522.925,     42.08 
 523.274,     60.04 
 523.624,     -2.81 
 523.973,      3.93 
 524.323,     37.59 
 524.672,     28.62 
 525.021,     21.88 
 525.371,     24.13 
 525.720,     66.77 
 526.069,     -5.05 
 526.418,     82.48 
 526.767,     66.77 
 527.117,     84.72 
 527.466,     30.86 
 527.815,     30.86 
 528.164,     48.81 
 528.512,     -0.56 
 528.861,     95.95 
 529.210,     60.04 
 529.559,     10.66 
 529.908,    111.66 
 530.256,     44.33 
 530.605,    116.15 
 530.954,     26.37 
 531.302,     53.30 
 531.651,     -2.81 
 531.999,      6.17 
 532.347,     26.37 
 532.696,    -27.49 
 533.044,     53.30 
 533.392,     42.08 
 533.741,     26.37 
 534.089,    125.12 
 534.437,     55.55 
 534.785,     62.28 
 535.133,     82.48 
 535.481,     51.06 
 535.829,     57.79 
 536.177,     26.37 
 536.525,     84.72 
 536.873,     44.33 
 537.221,     42.08 
 537.568,     71.26 
 537.916,    -29.74 
 538.264,    -92.58 
 538.611,      3.93 
 538.959,     -9.54 
 539.307,     51.06 
 539.654,     39.84 
 540.001,    -20.76 
 540.349,     30.86 
 540.696,     69.01 
 541.044,    104.92 
 541.391,     12.91 
 541.738,     28.62 
 542.085,      3.93 
 542.432,     10.66 
 542.779,     75.75 
 543.126,     35.35 
 543.473,     44.33 
 543.820,     48.81 
 544.167,    -43.20 
 544.514,     -9.54 
 544.861,     15.15 
 545.208,      6.17 
 545.555,     64.53 
 545.901,     44.33 
 546.248,    -27.49 
 546.595,      3.93 
 546.941,     71.26 
 547.288,     46.57 
 547.634,     53.30 
 547.980,     62.28 
 548.327,    -72.38 
 548.673,     60.04 
 549.019,     93.70 
 549.366,    -34.23 
 549.712,     26.37 
 550.058,     53.30 
 550.404,    -16.27 
 550.750,     39.84 
 551.096,     28.62 
 551.442,      3.93 
 551.788,     21.88 
 552.134,     12.91 
 552.480,     30.86 
 552.826,     28.62 
 553.171,    -16.27 
 553.517,     93.70 
 553.863,     53.30 
 554.208,     17.39 
 554.554,     42.08 
 554.900,     -0.56 
 555.245,     12.91 
 555.590,    -11.78 
 555.936,     26.37 
 556.281,     15.15 
 556.626,     86.97 
 556.972,     55.55 
 557.317,     42.08 
 557.662,     60.04 
 558.007,     62.28 
 558.352,    -29.74 
 558.697,      8.42 
 559.042,      8.42 
 559.387,     84.72 
 559.732,     66.77 
 560.077,    -58.91 
 560.422,    -40.96 
 560.767,    -63.40 
 561.111,     24.13 
 561.456,     30.86 
 561.801,     51.06 
 562.145,     19.64 
 562.490,      3.93 
 562.834,    -34.23 
 563.179,     64.53 
 563.523,     28.62 
 563.867,      1.68 
 564.212,     39.84 
 564.556,     28.62 
 564.900,     28.62 
 565.244,    -16.27 
 565.589,     30.86 
 565.933,     42.08 
 566.277,     12.91 
 566.621,     39.84 
 566.965,     -2.81 
 567.309,     -0.56 
 567.652,    -38.72 
 567.996,     17.39 
 568.340,     30.86 
 568.684,     44.33 
 569.027,     53.30 
 569.371,     98.19 
 569.715,     12.91 
 570.058,     48.81 
 570.402,     44.33 
 570.745,     26.37 
 571.089,     48.81 
 571.432,     89.21 
 571.775,     71.26 
 572.119,     91.46 
 572.462,     95.95 
 572.805,    111.66 
 573.148,    127.37 
 573.491,     71.26 
 573.834,     64.53 
 574.177,     39.84 
 574.520,     75.75 
 574.863,     26.37 
 575.206,    158.79 
 575.549,     24.13 
 575.892,     75.75 
 576.234,     60.04 
 576.577,     77.99 
 576.920,     53.30 
 577.262,    161.03 
 577.605,     82.48 
 577.947,    100.43 
 578.290,     80.24 
 578.632,    138.59 
 578.975,    127.37 
 579.317,    232.85 
 579.659,    111.66 
 580.001,    176.74 
 580.344,    100.43 
 580.686,     91.46 
 581.028,     82.48 
 581.370,    156.54 
 581.712,     44.33 
 582.054,     82.48 
 582.396,    183.48 
 582.738,    219.39 
 583.079,    214.90 
 583.421,    190.21 
 583.763,     84.72 
 584.105,     73.50 
 584.446,     75.75 
 584.788,    102.68 
 585.129,    125.12 
 585.471,    134.10 
 585.812,    147.57 
 586.154,     84.72 
 586.495,    111.66 
 586.836,     46.57 
 587.178,    167.77 
 587.519,     80.24 
 587.860,     53.30 
 588.201,     28.62 
 588.542,    138.59 
 588.883,    192.45 
 589.224,    118.39 
 589.565,    118.39 
 589.906,     10.66 
 590.247,    107.17 
 590.588,      6.17 
 590.929,    102.68 
 591.269,     48.81 
 591.610,     55.55 
 591.951,     37.59 
 592.291,    104.92 
 592.632,    125.12 
 592.972,     35.35 
 593.313,     55.55 
 593.653,     86.97 
 593.993,     93.70 
 594.334,     71.26 
 594.674,    131.86 
 595.014,     86.97 
 595.354,     26.37 
 595.694,     86.97 
 596.034,     95.95 
 596.375,     37.59 
 596.714,    127.37 
 597.054,    104.92 
 597.394,     86.97 
 597.734,     66.77 
 598.074,    111.66 
 598.414,    127.37 
 598.753,     69.01 
 599.093,     44.33 
 599.433,     71.26 
 599.772,    140.83 
 600.112,     55.55 
 600.451,    120.63 
 600.791,    185.72 
 601.130,    122.88 
 601.469,    152.05 
 601.809,    192.45 
 602.148,    154.30 
 602.487,    176.74 
 602.826,    147.57 
 603.165,     77.99 
 603.504,     71.26 
 603.843,     46.57 
 604.182,     93.70 
 604.521,    125.12 
 604.860,     84.72 
 605.199,     95.95 
 605.538,    104.92 
 605.877,     91.46 
 606.215,     77.99 
 606.554,     80.24 
 606.892,     33.10 
 607.231,     24.13 
 607.570,     55.55 
 607.908,     98.19 
 608.246,     64.53 
 608.585,     89.21 
 608.923,     53.30 
 609.261,     71.26 
 609.600,     62.28 
 609.938,     17.39 
 610.276,     35.35 
 610.614,     98.19 
 610.952,    149.81 
 611.290,     93.70 
 611.628,    120.63 
 611.966,     26.37 
 612.304,     77.99 
 612.641,    127.37 
 612.979,     80.24 
 613.317,     77.99 
 613.655,     91.46 
 613.992,     53.30 
 614.330,    129.61 
 614.667,    118.39 
 615.005,     66.77 
 615.342,      1.68 
 615.680,    109.41 
 616.017,     93.70 
 616.354,    120.63 
 616.691,    210.41 
 617.029,     93.70 
 617.366,      1.68 
 617.703,     46.57 
 618.040,     51.06 
 618.377,     24.13 
 618.714,     62.28 
 619.051,     12.91 
 619.388,     53.30 
 619.725,     21.88 
 620.061,     35.35 
 620.398,     42.08 
 620.735,     69.01 
 621.071,     48.81 
 621.408,    -34.23 
 621.745,     51.06 
 622.081,     26.37 
 622.417,     51.06 
 622.754,     33.10 
 623.090,    122.88 
 623.427,    102.68 
 623.763,     55.55 
 624.099,      6.17 
 624.435,      8.42 
 624.771,     24.13 
 625.107,     21.88 
 625.443,     60.04 
 625.779,     44.33 
 626.115,     -7.29 
 626.451,     30.86 
 626.787,     19.64 
 627.123,      1.68 
 627.459,     -5.05 
 627.794,    -20.76 
 628.130,     12.91 
 628.465,     82.48 
 628.801,     12.91 
 629.137,     46.57 
 629.472,     19.64 
 629.807,     -2.81 
 630.143,      3.93 
 630.478,     66.77 
 630.813,     21.88 
 631.149,      3.93 
 631.484,     -7.29 
 631.819,     -2.81 
 632.154,     -5.05 
 632.489,     21.88 
 632.824,    -65.65 
 633.159,     -9.54 
 633.494,      1.68 
 633.829,     51.06 
 634.164,     24.13 
 634.498,     -0.56 
 634.833,    -38.72 
 635.168,    -56.67 
 635.502,     39.84 
 635.837,     -0.56 
 636.171,    -23.00 
 636.506,     -9.54 
 636.840,   -101.56 
 637.175,    -40.96 
 637.509,     37.59 
 637.843,     28.62 
 638.177,      6.17 
 638.512,    -14.03 
 638.846,     48.81 
 639.180,    -29.74 
 639.514,     19.64 
 639.848,     15.15 
 640.182,     57.79 
 640.516,    -16.27 
 640.850,      8.42 
 641.183,    -18.52 
 641.517,    -58.91 
 641.851,      3.93 
 642.184,     10.66 
 642.518,      6.17 
 642.852,    -16.27 
 643.185,    -49.94 
 643.519,     24.13 
 643.852,    686.21 
 644.185,    154.30 
 644.519,    134.10 
 644.852,     53.30 
 645.185,     -7.29 
 645.519,     53.30 
 645.852,     66.77 
 646.185,    111.66 
 646.518,     66.77 
 646.851,     71.26 
 647.184,     95.95 
 647.517,     12.91 
 647.849,    -36.47 
 648.182,     -0.56 
 648.515,    -20.76 
 648.848,     -0.56 
 649.180,     39.84 
 649.513,     53.30 
 649.846,      6.17 
 650.178,     64.53 
 650.511,     19.64 
 650.843,     39.84 
 651.175,    -20.76 
 651.508,     17.39 
 651.840,    -40.96 
 652.172,     53.30 
 652.504,     24.13 
 652.837,    134.10 
 653.169,     98.19 
 653.501,    138.59 
 653.833,    187.96 
 654.165,    113.90 
 654.496,    226.12 
 654.828,    147.57 
 655.160,    219.39 
 655.492,    369.76 
 655.824,    726.61 
 656.155,   2941.78 
 656.487,  27438.85 
 656.818,  60118.82 
 657.150,  59625.07 
 657.481,  30316.11 
 657.813,  11066.33 
 658.144,   4454.47 
 658.475,   1866.74 
 658.807,    870.25 
 659.138,    412.40 
 659.469,    284.47 
 659.800,    167.77 
 660.131,    118.39 
 660.462,     95.95 
 660.793,     64.53 
 661.124,     84.72 
 661.455,     30.86 
 661.786,     39.84 
 662.117,     10.66 
 662.448,     60.04 
 662.778,      3.93 
 663.109,     -0.56 
 663.440,     17.39 
 663.770,    -14.03 
 664.101,     24.13 
 664.431,     24.13 
 664.761,     15.15 
 665.092,    -56.67 
 665.422,     57.79 
 665.752,    102.68 
 666.083,    -31.98 
 666.413,     46.57 
 666.743,     71.26 
 667.073,     44.33 
 667.403,     35.35 
 667.733,     21.88 
 668.063,     33.10 
 668.393,    -31.98 
 668.723,     17.39 
 669.052,    -81.36 
 669.382,    -23.00 
 669.712,    -14.03 
 670.041,      1.68 
 670.371,     10.66 
 670.700,      6.17 
 671.030,     -7.29 
 671.359,    -40.96 
 671.689,    -74.62 
 672.018,    -47.69 
 672.347,    -49.94 
 672.677,     26.37 
 673.006,    -27.49 
 673.335,    -23.00 
 673.664,    -23.00 
 673.993,    -25.25 
 674.322,     21.88 
 674.651,     10.66 
 674.980,      3.93 
 675.309,     -0.56 
 675.638,      8.42 
 675.966,     24.13 
 676.295,    -31.98 
 676.624,    -83.60 
 676.952,     10.66 
 677.281,     39.84 
 677.610,    -25.25 
 677.938,     -2.81 
 678.266,    -18.52 
 678.595,    -31.98 
 678.923,     -7.29 
 679.251,     -5.05 
 679.580,    -47.69 
 679.908,     39.84 
 680.236,   -112.78 
 680.564,    -36.47 
 680.892,    -31.98 
 681.220,     -7.29 
 681.548,    -45.45 
 681.876,     42.08 
 682.204,     93.70 
 682.531,    -61.16 
 682.859,    -11.78 
 683.187,      6.17 
 683.514,    -54.43 
 683.842,    -99.31 
 684.170,    -45.45 
 684.497,    -52.18 
 684.825,     -7.29 
 685.152,    -40.96 
 685.479,     -9.54 
 685.807,     19.64 
 686.134,     51.06 
 686.461,     -2.81 
 686.788,    -14.03 
 687.115,     33.10 
 687.442,     48.81 
 687.769,      8.42 
 688.096,    -31.98 
 688.423,    -31.98 
 688.750,    -38.72 
 689.077,     17.39 
 689.404,     12.91 
 689.730,    -20.76 
 690.057,     82.48 
 690.384,    -11.78 
 690.710,    -58.91 
 691.037,      8.42 
 691.363,    -25.25 
 691.689,    -14.03 
 692.016,     24.13 
 692.342,    -20.76 
 692.668,     -0.56 
 692.995,    -14.03 
 693.321,    -36.47 
 693.647,     15.15 
 693.973,    -92.58 
 694.299,    -36.47 
 694.625,     24.13 
 694.951,     17.39 
 695.277,    -52.18 
 695.603,     10.66 
 695.928,    -25.25 
 696.254,     55.55 
 696.580,    -31.98 
 696.905,    -25.25 
 697.231,      6.17 
 697.557,     33.10 
 697.882,     30.86 
 698.207,    -14.03 
 698.533,     -5.05 
 698.858,    -43.20 
 699.183,    -23.00 
 699.509,    -52.18 
 699.834,      8.42 
 700.159,     10.66 
 700.484,     35.35 
 700.809,     26.37 
 701.134,     -9.54 
 701.459,     44.33 
 701.784,     35.35 
 702.109,    -40.96 
 702.434,    -40.96 
 702.758,     39.84 
 703.083,     39.84 
 703.408,    -29.74 
 703.732,    -14.03 
 704.057,     -5.05 
 704.381,      6.17 
 704.706,    -54.43 
 705.030,    -23.00 
 705.354,     55.55 
 705.679,     15.15 
 706.003,    -18.52 
 706.327,    -25.25 
 706.651,    -29.74 
 706.975,      6.17 
 707.299,     26.37 
 707.623,     71.26 
 707.947,    -18.52 
 708.271,     -7.29 
 708.595,     24.13 
 708.919,     -7.29 
 709.243,     26.37 
 709.566,      3.93 
 709.890,    -29.74 
 710.214,    -11.78 
 710.537,    -85.85 
 710.861,    -18.52 
 711.184,     39.84 
 711.507,    -14.03 
 711.831,    -94.82 
 712.154,    -16.27 
 712.477,      3.93 
 712.801,    -40.96 
 713.124,    -40.96 
 713.447,     21.88 
 713.770,     -7.29 
 714.093,     57.79 
 714.416,    -47.69 
 714.739,     -5.05 
 715.061,    -18.52 
 715.384,     -9.54 
 715.707,    -40.96 
 716.030,     42.08 
 716.352,     53.30 
 716.675,     33.10 
 716.998,     15.15 
 717.320,    -29.74 
 717.642,    -14.03 
 717.965,    -61.16 
 718.287,     -7.29 
 718.610,    -31.98 
 718.932,      8.42 
 719.254,    -90.34 
 719.576,     26.37 
 719.898,    -20.76 
 720.220,     -7.29 
 720.542,    -23.00 
 720.864,    -61.16 
 721.186,     10.66 
 721.508,     64.53 
 721.830,    -31.98 
 722.152,     10.66 
 722.473,    -52.18 
 722.795,    -56.67 
 723.116,      6.17 
 723.438,    -20.76 
 723.760,    -31.98 
 724.081,    -36.47 
 724.402,     17.39 
 724.724,     -2.81 
 725.045,    -61.16 
 725.366,     -9.54 
 725.687,      3.93 
 726.009,    -27.49 
 726.330,     26.37 
 726.651,     -5.05 
 726.972,    -63.40 
 727.293,    -72.38 
 727.614,    -25.25 
 727.934,     17.39 
 728.255,     -9.54 
 728.576,     -9.54 
 728.897,     -0.56 
 729.217,     21.88 
 729.538,    -14.03 
 729.858,    -31.98 
 730.179,     12.91 
 730.499,     15.15 
 730.820,    -70.14 
 731.140,     30.86 
 731.460,    -54.43 
 731.781,    -29.74 
 732.101,     98.19 
 732.421,     12.91 
 732.741,     51.06 
 733.061,     -5.05 
 733.381,     37.59 
 733.701,     17.39 
 734.021,    -23.00 
 734.341,     10.66 
 734.661,     53.30 
 734.980,    -11.78 
 735.300,      6.17 
 735.620,     21.88 
 735.939,     -9.54 
 736.259,      3.93 
 736.578,    -56.67 
 736.898,     26.37 
 737.217,    -88.09 
 737.536,    -20.76 
 737.856,     73.50 
 738.175,     10.66 
 738.494,    -56.67 
 738.813,    -31.98 
 739.132,    -56.67 
 739.451,    -29.74 
 739.770,     -7.29 
 740.089,    -34.23 
 740.408,    -40.96 
 740.727,     21.88 
 741.046,      3.93 
 741.364,    -43.20 
 741.683,    -47.69 
 742.002,    -23.00 
 742.320,    -18.52 
 742.639,     -7.29 
 742.957,      3.93 
 743.276,     -0.56 
 743.594,    -23.00 
 743.912,    -29.74 
 744.231,     17.39 
 744.549,     26.37 
 744.867,      8.42 
 745.185,    -56.67 
 745.503,    -23.00 
 745.821,    -31.98 
 746.139,    -31.98 
 746.457,     -9.54 
 746.775,    336.09 
 747.093,    -38.72 
 747.410,     19.64 
 747.728,     28.62 
 748.046,     39.84 
 748.363,     -9.54 
 748.681,    -31.98 
 748.998,     51.06 
 749.316,     33.10 
 749.633,     26.37 
 749.951,     35.35 
 750.268,      8.42 
 750.585,     28.62 
 750.902,     28.62 
 751.220,     -5.05 
 751.537,    -18.52 
 751.854,    -45.45 
 752.171,    -43.20 
 752.488,    -20.76 
 752.805,    -34.23 
 753.121,     39.84 
 753.438,    -61.16 
 753.755,     10.66 
 754.072,     44.33 
 754.388,      6.17 
 754.705,     -2.81 
 755.021,     -0.56 
 755.338,     35.35 
 755.654,    -52.18 
 755.971,     -5.05 
 756.287,    -29.74 
 756.603,     51.06 
 756.919,     15.15 
 757.236,     42.08 
 757.552,      8.42 
 757.868,    -56.67 
 758.184,    -29.74 
 758.500,     10.66 
 758.816,    -54.43 
 759.132,     57.79 
 759.447,     71.26 
 759.763,     28.62 
 760.079,     35.35 
 760.395,    -20.76 
 760.710,    -61.16 
 761.026,     77.99 
 761.341,    -61.16 
 761.657,     -7.29 
 761.972,    -58.91 
 762.287,     75.75 
 762.603,     -9.54 
 762.918,    -29.74 
 763.233,      3.93 
 763.548,      6.17 
 763.863,    -54.43 
 764.178,    -58.91 
 764.493,    -14.03 
 764.808,    -54.43 
 765.123,     44.33 
 765.438,     77.99 
 765.753,      6.17 
 766.068,    -16.27 
 766.382,    -18.52 
 766.697,    -14.03 
 767.011,     17.39 
 767.326,     12.91 
 767.640,    -20.76 
 767.955,    -27.49 
 768.269,      3.93 
 768.584,     12.91 
 768.898,     -2.81 
 769.212,     30.86 
 769.526,     91.46 
 769.840,    -25.25 
 770.154,    -52.18 
 770.468,    -11.78 
 770.782,     24.13 
 771.096,     -2.81 
 771.410,    -14.03 
 771.724,    -52.18 
 772.038,     17.39 
 772.351,      3.93 
 772.665,    -54.43 
 772.979,     17.39 
 773.292,    -14.03 
 773.606,    -61.16 
 773.919,    -18.52 
 774.232,    -14.03 
 774.546,    -45.45 
 774.859,      6.17 
 775.172,     30.86 
 775.486,     82.48 
 775.799,    -31.98 
 776.112,     12.91 
 776.425,    -36.47 
 776.738,    -27.49 
 777.051,     37.59 
 777.364,    217.14 
 777.676,    331.60 
 777.989,    277.74 
 778.302,    154.30 
 778.614,    138.59 
 778.927,     19.64 
 779.240,     10.66 
 779.552,     21.88 
 779.865,    508.91 
 780.177,    -11.78 
 780.489,     57.79 
 780.802,     15.15 
 781.114,    -16.27 
 781.426,    -63.40 
 781.738,     -9.54 
 782.050,     24.13 
 782.362,    -65.65 
 782.674,   -126.24 
 782.986,     46.57 
 783.298,    -27.49 
 783.610,    -25.25 
 783.922,     48.81 
 784.233,     -2.81 
 784.545,    -25.25 
 784.857,    -16.27 
 785.168,    -29.74 
 785.480,      6.17 
 785.791,     28.62 
 786.103,     24.13 
 786.414,    -67.89 
 786.725,     -2.81 
 787.037,    -67.89 
 787.348,    -43.20 
 787.659,     33.10 
 787.970,    -54.43 
 788.281,     15.15 
 788.592,    -14.03 
 788.903,     21.88 
 789.214,    -18.52 
 789.525,     17.39 
 789.836,     -7.29 
 790.146,     28.62 
 790.457,      3.93 
 790.768,    -20.76 
 791.078,    -23.00 
 791.389,    -36.47 
 791.699,      8.42 
 792.010,    -27.49 
 792.320,      3.93 
 792.630,    -79.11 
 792.940,    -34.23 
 793.251,     -9.54 
 793.561,     -5.05 
 793.871,    -18.52 
 794.181,    -25.25 
 794.491,     30.86 
 794.801,    -45.45 
 795.111,     -5.05 
 795.421,     -9.54 
 795.730,    -61.16 
 796.040,     24.13 
 796.350,      3.93 
 796.659,    -29.74 
 796.969,    -54.43 
 797.279,    -23.00 
 797.588,    -23.00 
 797.897,    -49.94 
 798.207,    -36.47 
 798.516,    -25.25 
 798.825,    -54.43 
 799.135,    -27.49 
 799.444,    -36.47 
 799.753,    -43.20 
 800.062,     -2.81 
 800.371,    -63.40 
 800.680,    -16.27 
 800.989,     12.91 
 801.298,    -14.03 
 801.606,     10.66 
 801.915,    -67.89 
 802.224,      3.93 
 802.532,    -11.78 
 802.841,    -31.98 
 803.149,    -34.23 
 803.458,    -16.27 
 803.766,     10.66 
 804.075,    -29.74 
 804.383,      8.42 
 804.691,    -38.72 
 804.999,    -29.74 
 805.308,      1.68 
 805.616,      3.93 
 805.924,    -36.47 
 806.232,    -79.11 
 806.540,     -7.29 
 806.848,    -40.96 
 807.155,    -67.89 
 807.463,    -83.60 
 807.771,    -31.98 
 808.079,      6.17 
 808.386,     24.13 
 808.694,    -23.00 
 809.001,     -5.05 
 809.309,     19.64 
 809.616,     -2.81 
 809.924,     37.59 
 810.231,    -23.00 
 810.538,    -49.94 
 810.845,    -36.47 
 811.152,     10.66 
 811.460,    -72.38 
 811.767,     19.64 
 812.074,    -49.94 
 812.380,     26.37 
 812.687,     12.91 
 812.994,    -36.47 
 813.301,    -56.67 
 813.608,     35.35 
 813.914,     -5.05 
 814.221,    -88.09 
 814.527,    -31.98 
 814.834,      6.17 
 815.140,    -38.72 
 815.447,    -47.69 
 815.753,    -56.67 
 816.059,    -25.25 
 816.366,   -132.98 
 816.672,    -65.65 
 816.978,     53.30 
 817.284,    -34.23 
 817.590,      6.17 
 817.896,    -34.23 
 818.202,    -23.00 
 818.508,      6.17 
 818.814,    -49.94 
 819.119,     33.10 
 819.425,     21.88 
 819.731,    -20.76 
 820.036,    -27.49 
 820.342,    -11.78 
 820.647,     37.59 
 820.953,    -20.76 
 821.258,    -18.52 
 821.564,      1.68 
 821.869,      6.17 
 822.174,     -9.54 
 822.479,     46.57 
 822.784,    -34.23 
 823.089,    -23.00 
 823.394,      8.42 
 823.699,    -34.23 
 824.004,    -43.20 
 824.309,     26.37 
 824.614,     12.91 
 824.919,    -81.36 
 825.223,    -63.40 
 825.528,     -2.81 
 825.833,    -54.43 
 826.137,    -58.91 
 826.442,    -43.20 
 826.746,     -9.54 
 827.050,    -72.38 
 827.355,      8.42 
 827.659,      3.93 
 827.963,    -79.11 
 828.267,    -29.74 
 828.571,     86.97 
 828.875,     30.86 
 829.179,      8.42 
 829.483,      1.68 
 829.787,     55.55 
 830.091,    -20.76 
 830.395,      1.68 
 830.699,    -47.69 
 831.002,    -67.89 
 831.306,     24.13 
 831.609,    -83.60 
 831.913,      3.93 
 832.216,    -38.72 
 832.520,    -20.76 
 832.823,      3.93 
 833.126,   -101.56 
 833.430,     -5.05 
 833.733,    -27.49 
 834.036,    -27.49 
 834.339,    -29.74 
 834.642,      8.42 
 834.945,    -61.16 
 835.248,     48.81 
 835.551,    -72.38 
 835.854,    -47.69 
 836.156,    -72.38 
 836.459,    -14.03 
 836.762,     17.39 
 837.064,    -16.27 
 837.367,     17.39 
 837.669,      1.68 
 837.972,      3.93 
 838.274,    -25.25 
 838.576,      8.42 
 838.879,    -58.91 
 839.181,    -76.87 
 839.483,     -5.05 
 839.785,    -63.40 
 840.087,    -76.87 
 840.389,    -47.69 
 840.691,    -43.20 
 840.993,    -49.94 
 841.295,     24.13 
 841.597,    -47.69 
 841.898,     21.88 
 842.200,   -103.80 
 842.502,    -40.96 
 842.803,    -74.62 
 843.105,    -14.03 
 843.406,    -31.98 
 843.708,    -49.94 
 844.009,     10.66 
 844.310,    -31.98 
 844.611,    -43.20 
 844.913,      3.93 
 845.214,     51.06 
 845.515,     55.55 
 845.816,     30.86 
 846.117,    -16.27 
 846.418,     53.30 
 846.719,      8.42 
 847.019,      8.42 
 847.320,      6.17 
 847.621,    -31.98 
 847.921,     30.86 
 848.222,     -7.29 
 848.523,    -25.25 
 848.823,    -23.00 
 849.123,    -43.20 
 849.424,     10.66 
 849.724,     24.13 
 850.024,    -25.25 
 850.325,    -47.69 
 850.625,    -63.40 
 850.925,    -25.25 
 851.225,      3.93 
 851.525,    -25.25 
 851.825,    -25.25 
 852.125,     42.08 
 852.425,    -49.94 
 852.724,    -65.65 
 853.024,     10.66 
 853.324,    -20.76 
 853.623,    -16.27 
 853.923,    -25.25 
 854.222,    -14.03 
 854.522,    -36.47 
 854.821,    -63.40 
 855.120,    -14.03 
 855.420,    -27.49 
 855.719,    -18.52 
 856.018,      3.93 
 856.317,     -5.05 
 856.616,     33.10 
 856.915,      3.93 
 857.214,     35.35 
 857.513,     -9.54 
 857.812,    -54.43 
 858.111,    -38.72 
 858.409,      3.93 
 858.708,    -74.62 
 859.007,     -0.56 
 859.305,    -40.96 
 859.604,     -2.81 
 859.902,    -58.91 
 860.201,    -74.62 
 860.499,    -52.18 
 860.797,    -49.94 
 861.096,    -36.47 
 861.394,     35.35 
 861.692,    -23.00 
 861.990,     -9.54 
 862.288,     -9.54 
 862.586,    -49.94 
 862.884,    -79.11 
 863.182,    -65.65 
 863.479,    -54.43 
 863.777,    -79.11 
 864.075,     12.91 
 864.373,    -18.52 
 864.670,     12.91 
 864.968,     -2.81 
 865.265,    -85.85 
 865.563,    -81.36 
 865.860,    -38.72 
 866.157,    -34.23 
 866.454,    -47.69 
 866.752,      3.93 
 867.049,    -16.27 
 867.346,      8.42 
 867.643,    -58.91 
 867.940,     80.24 
 868.237,    -20.76 
 868.534,    -40.96 
 868.830,    -61.16 
 869.127,    -23.00 
 869.424,     15.15 
 869.720,     12.91 
 870.017,    -20.76 
 870.314,     30.86 
 870.610,    -36.47 
 870.906,    -63.40 
 871.203,     -2.81 
 871.499,    -38.72 
 871.795,    -49.94 
 872.092,      1.68 
 872.388,    -31.98 
 872.684,      6.17 
 872.980,     10.66 
 873.276,    -65.65 
 873.572,     10.66 
 873.868,     10.66 
 874.163,     53.30 
 874.459,    -49.94 
 874.755,     -2.81 
 875.051,    -31.98 
 875.346,    -38.72 
 875.642,    -45.45 
 875.937,    -83.60 
 876.233,     30.86 
 876.528,    -85.85 
 876.823,    -49.94 
 877.119,    -31.98 
 877.414,     19.64 
 877.709,    -34.23 
 878.004,    -67.89 
 878.299,    -36.47 
 878.594,    -27.49 
 878.889,     17.39 
 879.184,     26.37 
 879.479,     -9.54 
 879.773,     -5.05 
 880.068,      1.68 
 880.363,     -2.81 
 880.657,    -56.67 
 880.952,    -29.74 
 881.246,     46.57 
