Wavelength,Intensity
 177.185,    -30.30 
 177.571,    -30.30 
 177.957,    -30.30 
 178.343,     -5.61 
 178.729,     -3.37 
 179.115,     19.08 
 179.500,      3.37 
 179.886,    -21.32 
 180.272,     16.83 
 180.658,     59.48 
 181.043,    -37.03 
 181.429,     21.32 
 181.815,    -68.45 
 182.200,     -3.37 
 182.586,     43.76 
 182.972,    -63.96 
 183.357,     39.28 
 183.743,     30.30 
 184.128,    -48.25 
 184.513,    -43.76 
 184.899,     19.08 
 185.284,    -57.23 
 185.670,     25.81 
 186.055,      7.86 
 186.440,     10.10 
 186.825,     14.59 
 187.210,     25.81 
 187.596,    -10.10 
 187.981,    -19.08 
 188.366,     25.81 
 188.751,    -48.25 
 189.136,    -14.59 
 189.521,    -50.50 
 189.906,    -59.48 
 190.291,     12.34 
 190.676,    -32.54 
 191.060,    -14.59 
 191.445,    -21.32 
 191.830,    -54.99 
 192.215,      3.37 
 192.599,    -21.32 
 192.984,    -41.52 
 193.369,    -34.79 
 193.753,     14.59 
 194.138,     61.72 
 194.522,     30.30 
 194.907,     -1.12 
 195.291,     -3.37 
 195.676,     -3.37 
 196.060,    -48.25 
 196.445,    -19.08 
 196.829,      1.12 
 197.213,    -57.23 
 197.597,    -41.52 
 197.982,    -32.54 
 198.366,     21.32 
 198.750,    -37.03 
 199.134,     -3.37 
 199.518,     -1.12 
 199.902,    -46.01 
 200.286,    -10.10 
 200.670,    -50.50 
 201.054,     37.03 
 201.438,     72.94 
 201.822,      7.86 
 202.206,    -28.05 
 202.590,    -32.54 
 202.973,     50.50 
 203.357,     50.50 
 203.741,      7.86 
 204.124,     14.59 
 204.508,     88.65 
 204.892,     14.59 
 205.275,     16.83 
 205.659,    -48.25 
 206.042,     -7.86 
 206.426,    -12.34 
 206.809,     48.25 
 207.193,     28.05 
 207.576,      3.37 
 207.959,      3.37 
 208.342,     19.08 
 208.726,    -21.32 
 209.109,    -43.76 
 209.492,    -81.92 
 209.875,     -5.61 
 210.258,     -1.12 
 210.641,    -25.81 
 211.025,    -12.34 
 211.408,     10.10 
 211.790,    -37.03 
 212.173,      3.37 
 212.556,    -10.10 
 212.939,    -30.30 
 213.322,    -28.05 
 213.705,      5.61 
 214.088,    -46.01 
 214.470,    -25.81 
 214.853,    -25.81 
 215.236,    -57.23 
 215.618,     -7.86 
 216.001,    -32.54 
 216.383,    -19.08 
 216.766,     14.59 
 217.148,    -72.94 
 217.531,    -32.54 
 217.913,    -43.76 
 218.296,    -23.57 
 218.678,      3.37 
 219.060,     41.52 
 219.443,    -39.28 
 219.825,    -16.83 
 220.207,    -41.52 
 220.589,    -16.83 
 220.971,     12.34 
 221.353,     12.34 
 221.735,    -50.50 
 222.118,    -32.54 
 222.500,     -3.37 
 222.881,    -28.05 
 223.263,    -21.32 
 223.645,     39.28 
 224.027,    -95.38 
 224.409,    -54.99 
 224.791,   -104.36 
 225.172,    -93.14 
 225.554,    -50.50 
 225.936,    -95.38 
 226.317,      3.37 
 226.699,    -66.21 
 227.081,     66.21 
 227.462,     14.59 
 227.844,     48.25 
 228.225,    -32.54 
 228.607,     43.76 
 228.988,    -30.30 
 229.369,    -25.81 
 229.751,    -86.41 
 230.132,     46.01 
 230.513,    -21.32 
 230.894,    -30.30 
 231.276,    -39.28 
 231.657,    -68.45 
 232.038,    -19.08 
 232.419,     -7.86 
 232.800,    -52.74 
 233.181,     -5.61 
 233.562,    -95.38 
 233.943,    -39.28 
 234.324,     25.81 
 234.705,      5.61 
 235.085,      5.61 
 235.466,     32.54 
 235.847,    -30.30 
 236.228,     19.08 
 236.608,    -61.72 
 236.989,    -32.54 
 237.370,    -75.19 
 237.750,    -23.57 
 238.131,     39.28 
 238.511,     23.57 
 238.892,    -32.54 
 239.272,    -66.21 
 239.653,    -32.54 
 240.033,    -19.08 
 240.413,    -19.08 
 240.794,    -23.57 
 241.174,    -23.57 
 241.554,    -68.45 
 241.934,    -19.08 
 242.314,    -43.76 
 242.694,    -23.57 
 243.075,    -70.70 
 243.455,     -5.61 
 243.835,    -32.54 
 244.215,    -32.54 
 244.595,      3.37 
 244.974,     -7.86 
 245.354,     -3.37 
 245.734,    -23.57 
 246.114,     -1.12 
 246.494,    -19.08 
 246.873,     -5.61 
 247.253,    -37.03 
 247.633,    -19.08 
 248.012,     10.10 
 248.392,    -66.21 
 248.771,    -59.48 
 249.151,    -50.50 
 249.530,    -77.43 
 249.910,    -21.32 
 250.289,    -75.19 
 250.669,    -25.81 
 251.048,     43.76 
 251.427,     -5.61 
 251.806,    -28.05 
 252.186,      3.37 
 252.565,     14.59 
 252.944,     19.08 
 253.323,    -50.50 
 253.702,     -7.86 
 254.081,    -21.32 
 254.460,    -32.54 
 254.839,    -66.21 
 255.218,     21.32 
 255.597,    -10.10 
 255.976,    -41.52 
 256.355,    -19.08 
 256.733,     14.59 
 257.112,     -5.61 
 257.491,    -19.08 
 257.870,     25.81 
 258.248,    -30.30 
 258.627,     30.30 
 259.005,    -68.45 
 259.384,    -68.45 
 259.762,     25.81 
 260.141,      1.12 
 260.519,    -41.52 
 260.898,    -70.70 
 261.276,    -61.72 
 261.654,    -75.19 
 262.033,    -97.63 
 262.411,    -30.30 
 262.789,    -61.72 
 263.167,    -23.57 
 263.545,      7.86 
 263.924,    -16.83 
 264.302,    -25.81 
 264.680,    -30.30 
 265.058,     19.08 
 265.436,      5.61 
 265.813,     63.96 
 266.191,    -52.74 
 266.569,     -7.86 
 266.947,     19.08 
 267.325,     34.79 
 267.702,      1.12 
 268.080,     50.50 
 268.458,     16.83 
 268.835,    -41.52 
 269.213,    -66.21 
 269.591,    -34.79 
 269.968,     21.32 
 270.346,     37.03 
 270.723,      5.61 
 271.100,    -12.34 
 271.478,     57.23 
 271.855,    -19.08 
 272.232,     23.57 
 272.610,     -7.86 
 272.987,    -19.08 
 273.364,     -1.12 
 273.741,    -34.79 
 274.118,     48.25 
 274.495,     19.08 
 274.872,     14.59 
 275.249,     14.59 
 275.626,      7.86 
 276.003,     63.96 
 276.380,     57.23 
 276.757,    -14.59 
 277.134,     39.28 
 277.511,     88.65 
 277.887,     48.25 
 278.264,    -19.08 
 278.641,     -5.61 
 279.018,    -21.32 
 279.394,     12.34 
 279.771,     -5.61 
 280.147,     39.28 
 280.524,     25.81 
 280.900,    -32.54 
 281.277,      7.86 
 281.653,     46.01 
 282.029,      3.37 
 282.406,     93.14 
 282.782,     99.87 
 283.158,    111.10 
 283.534,    131.29 
 283.910,     68.45 
 284.287,     75.19 
 284.663,     57.23 
 285.039,    117.83 
 285.415,    131.29 
 285.791,    160.47 
 286.167,    120.07 
 286.542,    126.81 
 286.918,    147.00 
 287.294,    187.40 
 287.670,    129.05 
 288.046,     95.38 
 288.421,    173.94 
 288.797,     95.38 
 289.173,    162.72 
 289.548,    187.40 
 289.924,    140.27 
 290.299,    189.65 
 290.675,    234.53 
 291.050,    256.98 
 291.426,    187.40 
 291.801,    176.18 
 292.177,    241.27 
 292.552,    185.16 
 292.927,    104.36 
 293.302,    147.00 
 293.678,    212.09 
 294.053,    178.43 
 294.428,    153.74 
 294.803,    182.91 
 295.178,    138.03 
 295.553,    203.11 
 295.928,    223.31 
 296.303,    115.58 
 296.678,    124.56 
 297.053,    142.52 
 297.427,    223.31 
 297.802,    113.34 
 298.177,    162.72 
 298.552,    158.23 
 298.926,    151.49 
 299.301,    185.16 
 299.676,    176.18 
 300.050,    180.67 
 300.425,    301.86 
 300.799,    283.91 
 301.174,    209.85 
 301.548,    158.23 
 301.922,    230.05 
 302.297,    243.51 
 302.671,    234.53 
 303.045,    196.38 
 303.420,    241.27 
 303.794,    239.02 
 304.168,    225.56 
 304.542,    212.09 
 304.916,    277.18 
 305.290,    301.86 
 305.664,    333.29 
 306.038,    319.82 
 306.412,    346.75 
 306.786,    512.83 
 307.160,    809.09 
 307.534,   1296.11 
 307.907,   2034.50 
 308.281,   2456.44 
 308.655,   2265.67 
 309.028,   2510.30 
 309.402,   3078.13 
 309.776,   3351.94 
 310.149,   3737.96 
 310.523,   4108.28 
 310.896,   3473.13 
 311.270,   3096.08 
 311.643,   2766.16 
 312.016,   2503.57 
 312.390,   2420.53 
 312.763,   2341.98 
 313.136,   2236.49 
 313.509,   2312.80 
 313.883,   2326.27 
 314.256,   2061.43 
 314.629,   1911.06 
 315.002,   2135.50 
 315.375,   2030.01 
 315.748,   2038.99 
 316.121,   2016.55 
 316.494,   1924.53 
 316.867,   1753.96 
 317.240,   1780.89 
 317.612,   1691.12 
 317.985,   1610.32 
 318.358,   1475.66 
 318.730,   1464.44 
 319.103,   1367.93 
 319.476,   1269.18 
 319.848,   1287.13 
 320.221,   1147.98 
 320.593,   1035.77 
 320.966,    990.88 
 321.338,   1011.08 
 321.711,    896.62 
 322.083,    880.91 
 322.455,    952.73 
 322.828,    961.70 
 323.200,    860.71 
 323.572,    961.70 
 323.944,    831.53 
 324.316,    860.71 
 324.688,    858.46 
 325.060,    692.38 
 325.432,    667.69 
 325.804,    640.76 
 326.176,    625.05 
 326.548,    555.48 
 326.920,    528.54 
 327.292,    474.68 
 327.664,    544.25 
 328.035,    510.59 
 328.407,    420.82 
 328.779,    510.59 
 329.150,    562.21 
 329.522,    553.23 
 329.893,    524.06 
 330.265,    593.63 
 330.636,    443.26 
 331.008,    463.46 
 331.379,    472.44 
 331.750,    474.68 
 332.122,    423.06 
 332.493,    436.53 
 332.864,    472.44 
 333.236,    524.06 
 333.607,    436.53 
 333.978,    436.53 
 334.349,    333.29 
 334.720,    443.26 
 335.091,    400.62 
 335.462,    470.19 
 335.833,    436.53 
 336.204,    479.17 
 336.575,    407.35 
 336.945,    485.90 
 337.316,    499.37 
 337.687,    436.53 
 338.058,    443.26 
 338.428,    546.50 
 338.799,    517.32 
 339.169,    537.52 
 339.540,    434.28 
 339.911,    535.28 
 340.281,    528.54 
 340.651,    438.77 
 341.022,    420.82 
 341.392,    492.63 
 341.762,    479.17 
 342.133,    389.39 
 342.503,    452.24 
 342.873,    400.62 
 343.243,    474.68 
 343.613,    409.59 
 343.984,    470.19 
 344.354,    470.19 
 344.724,    638.52 
 345.094,    479.17 
 345.464,    494.88 
 345.833,    566.70 
 346.203,    542.01 
 346.573,    441.01 
 346.943,    506.10 
 347.313,    535.28 
 347.682,    582.41 
 348.052,    465.70 
 348.422,    577.92 
 348.791,    568.94 
 349.161,    586.90 
 349.530,    499.37 
 349.900,    530.79 
 350.269,    537.52 
 350.638,    564.45 
 351.008,    571.19 
 351.377,    494.88 
 351.746,    501.61 
 352.116,    524.06 
 352.485,    517.32 
 352.854,    526.30 
 353.223,    483.66 
 353.592,    506.10 
 353.961,    515.08 
 354.330,    521.81 
 354.699,    521.81 
 355.068,    521.81 
 355.437,    436.53 
 355.806,    465.70 
 356.175,    524.06 
 356.543,    458.97 
 356.912,    398.37 
 357.281,    539.77 
 357.650,    449.99 
 358.018,    557.72 
 358.387,    488.15 
 358.755,    452.24 
 359.124,    438.77 
 359.492,    494.88 
 359.861,    510.59 
 360.229,    476.92 
 360.597,    409.59 
 360.966,    391.64 
 361.334,    445.50 
 361.702,    447.75 
 362.070,    546.50 
 362.438,    425.30 
 362.807,    497.12 
 363.175,    497.12 
 363.543,    434.28 
 363.911,    434.28 
 364.279,    445.50 
 364.646,    521.81 
 365.014,    512.83 
 365.382,    490.39 
 365.750,    506.10 
 366.118,    461.21 
 366.485,    470.19 
 366.853,    481.41 
 367.221,    512.83 
 367.588,    449.99 
 367.956,    535.28 
 368.323,    436.53 
 368.691,    499.37 
 369.058,    528.54 
 369.426,    530.79 
 369.793,    479.17 
 370.160,    481.41 
 370.528,    481.41 
 370.895,    501.61 
 371.262,    517.32 
 371.629,    528.54 
 371.996,    488.15 
 372.363,    454.48 
 372.730,    488.15 
 373.097,    463.46 
 373.464,    492.63 
 373.831,    454.48 
 374.198,    546.50 
 374.565,    494.88 
 374.932,    438.77 
 375.299,    438.77 
 375.665,    497.12 
 376.032,    425.30 
 376.399,    441.01 
 376.765,    494.88 
 377.132,    454.48 
 377.498,    463.46 
 377.865,    485.90 
 378.231,    497.12 
 378.598,    485.90 
 378.964,    506.10 
 379.331,    472.44 
 379.697,    519.57 
 380.063,    463.46 
 380.429,    524.06 
 380.795,    470.19 
 381.162,    611.59 
 381.528,    533.03 
 381.894,    467.95 
 382.260,    528.54 
 382.626,    441.01 
 382.992,    497.12 
 383.358,    488.15 
 383.723,    526.30 
 384.089,    474.68 
 384.455,    517.32 
 384.821,    454.48 
 385.186,    483.66 
 385.552,    429.79 
 385.918,    465.70 
 386.283,    524.06 
 386.649,    458.97 
 387.014,    510.59 
 387.380,    519.57 
 387.745,    539.77 
 388.111,    447.75 
 388.476,    418.57 
 388.841,    467.95 
 389.206,    510.59 
 389.572,    490.39 
 389.937,    485.90 
 390.302,    548.74 
 390.667,    463.46 
 391.032,    445.50 
 391.397,    465.70 
 391.762,    434.28 
 392.127,    458.97 
 392.492,    353.49 
 392.857,    355.73 
 393.222,    447.75 
 393.587,    483.66 
 393.951,    497.12 
 394.316,    501.61 
 394.681,    458.97 
 395.045,    519.57 
 395.410,    521.81 
 395.774,    407.35 
 396.139,    555.48 
 396.503,    405.11 
 396.868,    375.93 
 397.232,    364.71 
 397.596,    402.86 
 397.961,    441.01 
 398.325,    521.81 
 398.689,    479.17 
 399.053,    434.28 
 399.418,    510.59 
 399.782,    427.55 
 400.146,    483.66 
 400.510,    351.24 
 400.874,    398.37 
 401.238,    434.28 
 401.602,    393.88 
 401.965,    427.55 
 402.329,    449.99 
 402.693,    411.84 
 403.057,    326.55 
 403.420,    340.02 
 403.784,    384.91 
 404.148,    375.93 
 404.511,    362.46 
 404.875,    371.44 
 405.238,    423.06 
 405.602,    443.26 
 405.965,    407.35 
 406.329,    389.39 
 406.692,    423.06 
 407.055,    357.97 
 407.418,    452.24 
 407.782,    434.28 
 408.145,    398.37 
 408.508,    470.19 
 408.871,    434.28 
 409.234,    344.51 
 409.597,    497.12 
 409.960,    400.62 
 410.323,    429.79 
 410.686,    452.24 
 411.049,    616.07 
 411.412,    672.18 
 411.774,    571.19 
 412.137,    501.61 
 412.500,    286.15 
 412.862,    274.93 
 413.225,    432.04 
 413.588,    393.88 
 413.950,    322.06 
 414.313,    409.59 
 414.675,    391.64 
 415.037,    290.64 
 415.400,    418.57 
 415.762,    333.29 
 416.124,    409.59 
 416.487,    407.35 
 416.849,    353.49 
 417.211,    402.86 
 417.573,    402.86 
 417.935,    364.71 
 418.297,    414.08 
 418.659,    461.21 
 419.021,    519.57 
 419.383,    497.12 
 419.745,    371.44 
 420.107,    405.11 
 420.469,    384.91 
 420.830,    452.24 
 421.192,    418.57 
 421.554,    472.44 
 421.915,    438.77 
 422.277,    458.97 
 422.638,    331.04 
 423.000,    342.26 
 423.361,    411.84 
 423.723,    308.60 
 424.084,    456.73 
 424.446,    295.13 
 424.807,    292.89 
 425.168,    265.96 
 425.529,    259.22 
 425.891,    265.96 
 426.252,    411.84 
 426.613,    326.55 
 426.974,    378.17 
 427.335,    349.00 
 427.696,    337.77 
 428.057,    277.18 
 428.418,    387.15 
 428.778,    342.26 
 429.139,    322.06 
 429.500,    279.42 
 429.861,    299.62 
 430.221,    337.77 
 430.582,    331.04 
 430.943,    281.67 
 431.303,    407.35 
 431.664,    337.77 
 432.024,    335.53 
 432.385,    270.44 
 432.745,    351.24 
 433.105,    241.27 
 433.466,    310.84 
 433.826,    290.64 
 434.186,    362.46 
 434.546,    555.48 
 434.907,   1024.55 
 435.267,   1828.02 
 435.627,   1567.68 
 435.987,    714.83 
 436.347,    391.64 
 436.707,    360.22 
 437.067,    317.58 
 437.427,    268.20 
 437.786,    319.82 
 438.146,    281.67 
 438.506,    322.06 
 438.866,    319.82 
 439.225,    227.80 
 439.585,    315.33 
 439.944,    331.04 
 440.304,    328.80 
 440.663,    353.49 
 441.023,    366.95 
 441.382,    384.91 
 441.742,    342.26 
 442.101,    384.91 
 442.460,    382.66 
 442.820,    429.79 
 443.179,    456.73 
 443.538,    335.53 
 443.897,    355.73 
 444.256,    304.11 
 444.615,    250.24 
 444.974,    364.71 
 445.333,    241.27 
 445.692,    340.02 
 446.051,    301.86 
 446.410,    380.42 
 446.768,    335.53 
 447.127,    407.35 
 447.486,    420.82 
 447.845,    308.60 
 448.203,    308.60 
 448.562,    277.18 
 448.920,    286.15 
 449.279,    384.91 
 449.637,    389.39 
 449.996,    340.02 
 450.354,    313.09 
 450.712,    373.68 
 451.071,    328.80 
 451.429,    353.49 
 451.787,    310.84 
 452.145,    290.64 
 452.503,    279.42 
 452.861,    295.13 
 453.219,    331.04 
 453.577,    335.53 
 453.935,    277.18 
 454.293,    261.47 
 454.651,    344.51 
 455.009,    265.96 
 455.367,    218.82 
 455.725,    198.62 
 456.082,    317.58 
 456.440,    349.00 
 456.798,    310.84 
 457.155,    322.06 
 457.513,    373.68 
 457.870,    315.33 
 458.228,    340.02 
 458.585,    407.35 
 458.942,    414.08 
 459.300,    492.63 
 459.657,    380.42 
 460.014,    366.95 
 460.371,    182.91 
 460.729,    254.73 
 461.086,    290.64 
 461.443,    173.94 
 461.800,    313.09 
 462.157,    198.62 
 462.514,    140.27 
 462.871,    236.78 
 463.227,    254.73 
 463.584,    346.75 
 463.941,    409.59 
 464.298,    566.70 
 464.655,    631.78 
 465.011,    492.63 
 465.368,    346.75 
 465.724,    351.24 
 466.081,    304.11 
 466.437,    306.35 
 466.794,    362.46 
 467.150,    256.98 
 467.507,    263.71 
 467.863,    265.96 
 468.219,    342.26 
 468.575,    232.29 
 468.932,    344.51 
 469.288,    319.82 
 469.644,    274.93 
 470.000,    326.55 
 470.356,    335.53 
 470.712,    308.60 
 471.068,    227.80 
 471.424,    209.85 
 471.780,    169.45 
 472.135,    214.34 
 472.491,    245.76 
 472.847,    304.11 
 473.203,    288.40 
 473.558,    328.80 
 473.914,    380.42 
 474.269,    218.82 
 474.625,    239.02 
 474.980,    250.24 
 475.336,    263.71 
 475.691,    200.87 
 476.046,    212.09 
 476.402,    223.31 
 476.757,    290.64 
 477.112,    295.13 
 477.467,    286.15 
 477.823,    254.73 
 478.178,    380.42 
 478.533,    265.96 
 478.888,    301.86 
 479.243,    331.04 
 479.598,    353.49 
 479.952,    353.49 
 480.307,    308.60 
 480.662,    384.91 
 481.017,    393.88 
 481.372,    371.44 
 481.726,    313.09 
 482.081,    380.42 
 482.435,    400.62 
 482.790,    259.22 
 483.144,    227.80 
 483.499,    306.35 
 483.853,    317.58 
 484.208,    295.13 
 484.562,    364.71 
 484.916,    357.97 
 485.270,    362.46 
 485.625,    407.35 
 485.979,    566.70 
 486.333,   1073.92 
 486.687,   3434.98 
 487.041,  11207.16 
 487.395,  24646.32 
 487.749,  12010.64 
 488.103,   3526.99 
 488.457,   1161.45 
 488.810,    708.09 
 489.164,    488.15 
 489.518,    420.82 
 489.872,    375.93 
 490.225,    346.75 
 490.579,    340.02 
 490.932,    304.11 
 491.286,    342.26 
 491.639,    409.59 
 491.993,    393.88 
 492.346,    241.27 
 492.700,    290.64 
 493.053,    319.82 
 493.406,    366.95 
 493.759,    485.90 
 494.112,    640.76 
 494.466,    755.22 
 494.819,    703.60 
 495.172,    472.44 
 495.525,    279.42 
 495.878,    297.38 
 496.231,    308.60 
 496.583,    304.11 
 496.936,    373.68 
 497.289,    342.26 
 497.642,    389.39 
 497.994,    362.46 
 498.347,    313.09 
 498.700,    351.24 
 499.052,    268.20 
 499.405,    310.84 
 499.757,    239.02 
 500.110,    203.11 
 500.462,    209.85 
 500.814,    214.34 
 501.167,    319.82 
 501.519,    236.78 
 501.871,    306.35 
 502.223,    434.28 
 502.575,    449.99 
 502.928,    344.51 
 503.280,    340.02 
 503.632,    268.20 
 503.984,    308.60 
 504.335,    326.55 
 504.687,    274.93 
 505.039,    230.05 
 505.391,    279.42 
 505.743,    241.27 
 506.094,    239.02 
 506.446,    245.76 
 506.798,    277.18 
 507.149,    286.15 
 507.501,    241.27 
 507.852,    279.42 
 508.204,    310.84 
 508.555,    301.86 
 508.906,    335.53 
 509.258,    277.18 
 509.609,    319.82 
 509.960,    349.00 
 510.311,    216.58 
 510.663,    230.05 
 511.014,    301.86 
 511.365,    216.58 
 511.716,    218.82 
 512.067,    279.42 
 512.418,    299.62 
 512.768,    230.05 
 513.119,    239.02 
 513.470,    259.22 
 513.821,    162.72 
 514.171,    241.27 
 514.522,    196.38 
 514.873,    203.11 
 515.223,    254.73 
 515.574,    198.62 
 515.924,    212.09 
 516.275,    248.00 
 516.625,    185.16 
 516.975,    178.43 
 517.326,    223.31 
 517.676,    254.73 
 518.026,    214.34 
 518.376,    288.40 
 518.727,    277.18 
 519.077,    250.24 
 519.427,    308.60 
 519.777,    218.82 
 520.127,    212.09 
 520.477,    301.86 
 520.826,    259.22 
 521.176,    301.86 
 521.526,    274.93 
 521.876,    295.13 
 522.225,    234.53 
 522.575,    209.85 
 522.925,    214.34 
 523.274,    223.31 
 523.624,    212.09 
 523.973,    227.80 
 524.323,    171.69 
 524.672,    225.56 
 525.021,    140.27 
 525.371,    223.31 
 525.720,    254.73 
 526.069,    248.00 
 526.418,    261.47 
 526.767,    317.58 
 527.117,    248.00 
 527.466,    319.82 
 527.815,    326.55 
 528.164,    328.80 
 528.512,    301.86 
 528.861,    313.09 
 529.210,    256.98 
 529.559,    216.58 
 529.908,    214.34 
 530.256,    270.44 
 530.605,    214.34 
 530.954,    196.38 
 531.302,    331.04 
 531.651,    297.38 
 531.999,    310.84 
 532.347,    261.47 
 532.696,    232.29 
 533.044,    218.82 
 533.392,    277.18 
 533.741,    189.65 
 534.089,    149.25 
 534.437,    223.31 
 534.785,    212.09 
 535.133,    187.40 
 535.481,    203.11 
 535.829,     84.16 
 536.177,    133.54 
 536.525,    270.44 
 536.873,    198.62 
 537.221,    227.80 
 537.568,    214.34 
 537.916,    173.94 
 538.264,    117.83 
 538.611,    153.74 
 538.959,    194.14 
 539.307,    189.65 
 539.654,    133.54 
 540.001,    256.98 
 540.349,    223.31 
 540.696,    283.91 
 541.044,    187.40 
 541.391,    227.80 
 541.738,    252.49 
 542.085,    117.83 
 542.432,     88.65 
 542.779,    185.16 
 543.126,    313.09 
 543.473,    243.51 
 543.820,    239.02 
 544.167,    196.38 
 544.514,    178.43 
 544.861,    252.49 
 545.208,    203.11 
 545.555,    207.60 
 545.901,    171.69 
 546.248,    194.14 
 546.595,    108.85 
 546.941,    140.27 
 547.288,    198.62 
 547.634,    147.00 
 547.980,    178.43 
 548.327,    160.47 
 548.673,    182.91 
 549.019,    135.78 
 549.366,    162.72 
 549.712,     95.38 
 550.058,    117.83 
 550.404,     93.14 
 550.750,    160.47 
 551.096,    169.45 
 551.442,    158.23 
 551.788,    120.07 
 552.134,    147.00 
 552.480,     95.38 
 552.826,    209.85 
 553.171,    182.91 
 553.517,    167.20 
 553.863,    131.29 
 554.208,    182.91 
 554.554,    248.00 
 554.900,    310.84 
 555.245,    254.73 
 555.590,    256.98 
 555.936,    205.36 
 556.281,    142.52 
 556.626,    250.24 
 556.972,    164.96 
 557.317,    171.69 
 557.662,    162.72 
 558.007,    167.20 
 558.352,    131.29 
 558.697,    149.25 
 559.042,     95.38 
 559.387,    182.91 
 559.732,    149.25 
 560.077,    180.67 
 560.422,    171.69 
 560.767,    232.29 
 561.111,    173.94 
 561.456,    149.25 
 561.801,    162.72 
 562.145,    129.05 
 562.490,    205.36 
 562.834,    149.25 
 563.179,    176.18 
 563.523,    133.54 
 563.867,    178.43 
 564.212,    223.31 
 564.556,    218.82 
 564.900,    167.20 
 565.244,    196.38 
 565.589,    160.47 
 565.933,    209.85 
 566.277,    120.07 
 566.621,    167.20 
 566.965,    243.51 
 567.309,    265.96 
 567.652,    245.76 
 567.996,    198.62 
 568.340,    167.20 
 568.684,    187.40 
 569.027,    241.27 
 569.371,    286.15 
 569.715,    380.42 
 570.058,    364.71 
 570.402,    306.35 
 570.745,    306.35 
 571.089,    342.26 
 571.432,    371.44 
 571.775,    268.20 
 572.119,    292.89 
 572.462,    225.56 
 572.805,    221.07 
 573.148,    200.87 
 573.491,    232.29 
 573.834,    425.30 
 574.177,    476.92 
 574.520,    524.06 
 574.863,    497.12 
 575.206,    342.26 
 575.549,    167.20 
 575.892,    270.44 
 576.234,    234.53 
 576.577,    409.59 
 576.920,    470.19 
 577.262,    492.63 
 577.605,    470.19 
 577.947,    382.66 
 578.290,    528.54 
 578.632,    405.11 
 578.975,    456.73 
 579.317,    544.25 
 579.659,    479.17 
 580.001,    492.63 
 580.344,    512.83 
 580.686,    467.95 
 581.028,    398.37 
 581.370,    445.50 
 581.712,    575.68 
 582.054,    730.54 
 582.396,   1112.08 
 582.738,    858.46 
 583.079,    681.16 
 583.421,    515.08 
 583.763,    402.86 
 584.105,    335.53 
 584.446,    600.36 
 584.788,    665.45 
 585.129,    389.39 
 585.471,    331.04 
 585.812,    425.30 
 586.154,    438.77 
 586.495,    315.33 
 586.836,    171.69 
 587.178,    252.49 
 587.519,    387.15 
 587.860,    301.86 
 588.201,    512.83 
 588.542,    409.59 
 588.883,    378.17 
 589.224,    550.99 
 589.565,    824.80 
 589.906,    784.40 
 590.247,    492.63 
 590.588,    326.55 
 590.929,    288.40 
 591.269,    200.87 
 591.610,    268.20 
 591.951,    230.05 
 592.291,    405.11 
 592.632,    535.28 
 592.972,    517.32 
 593.313,    501.61 
 593.653,    472.44 
 593.993,    667.69 
 594.334,    737.27 
 594.674,    631.78 
 595.014,    840.51 
 595.354,    544.25 
 595.694,    458.97 
 596.034,    497.12 
 596.375,    340.02 
 596.714,    326.55 
 597.054,    472.44 
 597.394,    465.70 
 597.734,    598.12 
 598.074,    651.98 
 598.414,    750.73 
 598.753,    782.16 
 599.093,    690.14 
 599.433,    589.14 
 599.772,    411.84 
 600.112,    508.35 
 600.451,    445.50 
 600.791,    398.37 
 601.130,    310.84 
 601.469,    362.46 
 601.809,    301.86 
 602.148,    310.84 
 602.487,    429.79 
 602.826,    945.99 
 603.165,    930.28 
 603.504,    975.17 
 603.843,   1076.17 
 604.182,   1177.16 
 604.521,    611.59 
 604.860,    380.42 
 605.199,    387.15 
 605.538,    270.44 
 605.877,    328.80 
 606.215,    429.79 
 606.554,    322.06 
 606.892,    369.20 
 607.231,    313.09 
 607.570,    553.23 
 607.908,    678.92 
 608.246,    506.10 
 608.585,    411.84 
 608.923,    427.55 
 609.261,    463.46 
 609.600,    411.84 
 609.938,    508.35 
 610.276,    645.25 
 610.614,    595.87 
 610.952,    380.42 
 611.290,    113.34 
 611.628,    209.85 
 611.966,     97.63 
 612.304,    149.25 
 612.641,    290.64 
 612.979,    530.79 
 613.317,    598.12 
 613.655,    535.28 
 613.992,    458.97 
 614.330,    752.98 
 614.667,    678.92 
 615.005,    407.35 
 615.342,    310.84 
 615.680,    230.05 
 616.017,    272.69 
 616.354,    290.64 
 616.691,    297.38 
 617.029,    373.68 
 617.366,    396.13 
 617.703,    295.13 
 618.040,    252.49 
 618.377,    416.33 
 618.714,    241.27 
 619.051,    317.58 
 619.388,    277.18 
 619.725,    140.27 
 620.061,    191.89 
 620.398,    279.42 
 620.735,    454.48 
 621.071,    364.71 
 621.408,    265.96 
 621.745,    187.40 
 622.081,     75.19 
 622.417,      5.61 
 622.754,    131.29 
 623.090,    283.91 
 623.427,    409.59 
 623.763,    326.55 
 624.099,    319.82 
 624.435,    322.06 
 624.771,    335.53 
 625.107,    256.98 
 625.443,    187.40 
 625.779,    164.96 
 626.115,    124.56 
 626.451,     39.28 
 626.787,     97.63 
 627.123,     52.74 
 627.459,    147.00 
 627.794,    149.25 
 628.130,    162.72 
 628.465,    245.76 
 628.801,    234.53 
 629.137,    164.96 
 629.472,    122.32 
 629.807,    113.34 
 630.143,     90.90 
 630.478,    187.40 
 630.813,    194.14 
 631.149,    218.82 
 631.484,     61.72 
 631.819,    138.03 
 632.154,    102.12 
 632.489,    178.43 
 632.824,    106.61 
 633.159,    149.25 
 633.494,    245.76 
 633.829,    252.49 
 634.164,    189.65 
 634.498,    205.36 
 634.833,    113.34 
 635.168,     46.01 
 635.502,    117.83 
 635.837,     59.48 
 636.171,     70.70 
 636.506,     21.32 
 636.840,     50.50 
 637.175,    221.07 
 637.509,    147.00 
 637.843,     79.67 
 638.177,     41.52 
 638.512,    147.00 
 638.846,    149.25 
 639.180,    102.12 
 639.514,    120.07 
 639.848,     79.67 
 640.182,    106.61 
 640.516,    151.49 
 640.850,    122.32 
 641.183,    135.78 
 641.517,     95.38 
 641.851,    106.61 
 642.184,     66.21 
 642.518,     54.99 
 642.852,    133.54 
 643.185,     39.28 
 643.519,     70.70 
 643.852,    842.75 
 644.185,    133.54 
 644.519,    111.10 
 644.852,     61.72 
 645.185,    151.49 
 645.519,     99.87 
 645.852,     75.19 
 646.185,     88.65 
 646.518,    117.83 
 646.851,    122.32 
 647.184,     75.19 
 647.517,     75.19 
 647.849,     34.79 
 648.182,      1.12 
 648.515,    122.32 
 648.848,     63.96 
 649.180,     68.45 
 649.513,     14.59 
 649.846,     23.57 
 650.178,     50.50 
 650.511,    111.10 
 650.843,     99.87 
 651.175,     99.87 
 651.508,     61.72 
 651.840,     97.63 
 652.172,    147.00 
 652.504,    212.09 
 652.837,    272.69 
 653.169,    297.38 
 653.501,    297.38 
 653.833,    234.53 
 654.165,    259.22 
 654.496,    292.89 
 654.828,    346.75 
 655.160,    362.46 
 655.492,    555.48 
 655.824,   1035.77 
 656.155,   2476.64 
 656.487,  21780.29 
 656.818,  64321.93 
 657.150,  64321.93 
 657.481,  64321.93 
 657.813,  32041.45 
 658.144,  12147.54 
 658.475,   4810.76 
 658.807,   2050.21 
 659.138,   1062.70 
 659.469,    627.30 
 659.800,    402.86 
 660.131,    281.67 
 660.462,    207.60 
 660.793,    209.85 
 661.124,    207.60 
 661.455,     81.92 
 661.786,    147.00 
 662.117,    111.10 
 662.448,    135.78 
 662.778,     99.87 
 663.109,    131.29 
 663.440,    135.78 
 663.770,    122.32 
 664.101,    120.07 
 664.431,     54.99 
 664.761,    147.00 
 665.092,     97.63 
 665.422,     19.08 
 665.752,     41.52 
 666.083,     93.14 
 666.413,    -12.34 
 666.743,     63.96 
 667.073,     93.14 
 667.403,     63.96 
 667.733,      7.86 
 668.063,     57.23 
 668.393,     84.16 
 668.723,     39.28 
 669.052,     81.92 
 669.382,     19.08 
 669.712,     -7.86 
 670.041,     97.63 
 670.371,     54.99 
 670.700,     16.83 
 671.030,     97.63 
 671.359,     28.05 
 671.689,     77.43 
 672.018,    -43.76 
 672.347,    111.10 
 672.677,     46.01 
 673.006,     54.99 
 673.335,     32.54 
 673.664,     21.32 
 673.993,     -3.37 
 674.322,    -32.54 
 674.651,     68.45 
 674.980,     16.83 
 675.309,     95.38 
 675.638,     59.48 
 675.966,     59.48 
 676.295,    -21.32 
 676.624,     50.50 
 676.952,      7.86 
 677.281,     41.52 
 677.610,     34.79 
 677.938,    131.29 
 678.266,      3.37 
 678.595,     -7.86 
 678.923,      5.61 
 679.251,     50.50 
 679.580,     21.32 
 679.908,     16.83 
 680.236,     12.34 
 680.564,    -54.99 
 680.892,      5.61 
 681.220,     28.05 
 681.548,    -28.05 
 681.876,     21.32 
 682.204,     21.32 
 682.531,    -37.03 
 682.859,     57.23 
 683.187,     -3.37 
 683.514,     10.10 
 683.842,     68.45 
 684.170,    -23.57 
 684.497,     86.41 
 684.825,    117.83 
 685.152,     84.16 
 685.479,     16.83 
 685.807,     34.79 
 686.134,     -1.12 
 686.461,     23.57 
 686.788,     -7.86 
 687.115,    -21.32 
 687.442,      3.37 
 687.769,    -46.01 
 688.096,     30.30 
 688.423,     63.96 
 688.750,     57.23 
 689.077,      3.37 
 689.404,     12.34 
 689.730,     28.05 
 690.057,     52.74 
 690.384,     37.03 
 690.710,    102.12 
 691.037,     57.23 
 691.363,    -21.32 
 691.689,     21.32 
 692.016,    -16.83 
 692.342,     -1.12 
 692.668,    -14.59 
 692.995,     75.19 
 693.321,     19.08 
 693.647,     -3.37 
 693.973,      3.37 
 694.299,     43.76 
 694.625,     61.72 
 694.951,     14.59 
 695.277,     57.23 
 695.603,     75.19 
 695.928,    -84.16 
 696.254,     52.74 
 696.580,     10.10 
 696.905,     79.67 
 697.231,    -14.59 
 697.557,     19.08 
 697.882,      7.86 
 698.207,    -30.30 
 698.533,     68.45 
 698.858,      3.37 
 699.183,     19.08 
 699.509,     50.50 
 699.834,     23.57 
 700.159,      7.86 
 700.484,     50.50 
 700.809,     75.19 
 701.134,      3.37 
 701.459,    -19.08 
 701.784,     19.08 
 702.109,     25.81 
 702.434,    -21.32 
 702.758,    -72.94 
 703.083,     23.57 
 703.408,     16.83 
 703.732,     28.05 
 704.057,    -19.08 
 704.381,     61.72 
 704.706,     34.79 
 705.030,    133.54 
 705.354,     72.94 
 705.679,     59.48 
 706.003,     43.76 
 706.327,     21.32 
 706.651,     -1.12 
 706.975,     50.50 
 707.299,     10.10 
 707.623,     -5.61 
 707.947,    -86.41 
 708.271,      5.61 
 708.595,     68.45 
 708.919,    -16.83 
 709.243,     97.63 
 709.566,     39.28 
 709.890,     28.05 
 710.214,     12.34 
 710.537,     19.08 
 710.861,     37.03 
 711.184,     39.28 
 711.507,     39.28 
 711.831,     30.30 
 712.154,     25.81 
 712.477,     52.74 
 712.801,     50.50 
 713.124,     93.14 
 713.447,     -7.86 
 713.770,    -25.81 
 714.093,    -39.28 
 714.416,     -7.86 
 714.739,     70.70 
 715.061,     -1.12 
 715.384,     21.32 
 715.707,     77.43 
 716.030,     -5.61 
 716.352,     30.30 
 716.675,     46.01 
 716.998,     43.76 
 717.320,     99.87 
 717.642,    -10.10 
 717.965,     99.87 
 718.287,    -46.01 
 718.610,     70.70 
 718.932,     68.45 
 719.254,     50.50 
 719.576,    -39.28 
 719.898,     39.28 
 720.220,      5.61 
 720.542,     68.45 
 720.864,     57.23 
 721.186,     43.76 
 721.508,     12.34 
 721.830,     57.23 
 722.152,      3.37 
 722.473,     66.21 
 722.795,     -7.86 
 723.116,    -30.30 
 723.438,     86.41 
 723.760,     52.74 
 724.081,     50.50 
 724.402,     46.01 
 724.724,     23.57 
 725.045,     50.50 
 725.366,     43.76 
 725.687,     54.99 
 726.009,    113.34 
 726.330,    126.81 
 726.651,     86.41 
 726.972,    104.36 
 727.293,     70.70 
 727.614,     79.67 
 727.934,    111.10 
 728.255,     19.08 
 728.576,    113.34 
 728.897,    147.00 
 729.217,     90.90 
 729.538,      5.61 
 729.858,     19.08 
 730.179,     43.76 
 730.499,     30.30 
 730.820,     86.41 
 731.140,     -7.86 
 731.460,     86.41 
 731.781,     99.87 
 732.101,    131.29 
 732.421,     -7.86 
 732.741,     19.08 
 733.061,      1.12 
 733.381,    -12.34 
 733.701,     46.01 
 734.021,     34.79 
 734.341,     14.59 
 734.661,    -19.08 
 734.980,     19.08 
 735.300,     81.92 
 735.620,     66.21 
 735.939,     72.94 
 736.259,     63.96 
 736.578,     10.10 
 736.898,     93.14 
 737.217,     10.10 
 737.536,     61.72 
 737.856,     84.16 
 738.175,      7.86 
 738.494,    -25.81 
 738.813,     50.50 
 739.132,     28.05 
 739.451,     -5.61 
 739.770,      7.86 
 740.089,     77.43 
 740.408,      5.61 
 740.727,     10.10 
 741.046,    -12.34 
 741.364,     12.34 
 741.683,    -19.08 
 742.002,    -37.03 
 742.320,     63.96 
 742.639,     23.57 
 742.957,    -10.10 
 743.276,    -14.59 
 743.594,     21.32 
 743.912,    -39.28 
 744.231,     39.28 
 744.549,     34.79 
 744.867,     75.19 
 745.185,     70.70 
 745.503,    149.25 
 745.821,     99.87 
 746.139,     72.94 
 746.457,    106.61 
 746.775,    499.37 
 747.093,    106.61 
 747.410,    111.10 
 747.728,     25.81 
 748.046,     99.87 
 748.363,     30.30 
 748.681,     97.63 
 748.998,    104.36 
 749.316,      1.12 
 749.633,     25.81 
 749.951,      3.37 
 750.268,      3.37 
 750.585,     -7.86 
 750.902,     61.72 
 751.220,     43.76 
 751.537,    -14.59 
 751.854,     21.32 
 752.171,    -32.54 
 752.488,      5.61 
 752.805,    117.83 
 753.121,    126.81 
 753.438,     46.01 
 753.755,     10.10 
 754.072,     39.28 
 754.388,     93.14 
 754.705,     34.79 
 755.021,     50.50 
 755.338,     30.30 
 755.654,    -25.81 
 755.971,     14.59 
 756.287,     12.34 
 756.603,     46.01 
 756.919,     14.59 
 757.236,     63.96 
 757.552,     28.05 
 757.868,     10.10 
 758.184,     32.54 
 758.500,     23.57 
 758.816,     77.43 
 759.132,     70.70 
 759.447,     93.14 
 759.763,     88.65 
 760.079,     50.50 
 760.395,     50.50 
 760.710,    189.65 
 761.026,     59.48 
 761.341,     77.43 
 761.657,      3.37 
 761.972,    -39.28 
 762.287,    -21.32 
 762.603,     16.83 
 762.918,     63.96 
 763.233,      3.37 
 763.548,     16.83 
 763.863,    -25.81 
 764.178,     -7.86 
 764.493,    -41.52 
 764.808,    -52.74 
 765.123,     48.25 
 765.438,     50.50 
 765.753,     48.25 
 766.068,     66.21 
 766.382,     77.43 
 766.697,     52.74 
 767.011,    -21.32 
 767.326,     59.48 
 767.640,     93.14 
 767.955,     39.28 
 768.269,     84.16 
 768.584,     25.81 
 768.898,    -12.34 
 769.212,     25.81 
 769.526,     46.01 
 769.840,     86.41 
 770.154,     57.23 
 770.468,     61.72 
 770.782,     32.54 
 771.096,    -21.32 
 771.410,     -7.86 
 771.724,     39.28 
 772.038,     46.01 
 772.351,     59.48 
 772.665,     84.16 
 772.979,    -68.45 
 773.292,     25.81 
 773.606,     81.92 
 773.919,     46.01 
 774.232,     61.72 
 774.546,     10.10 
 774.859,    -54.99 
 775.172,     -1.12 
 775.486,    -28.05 
 775.799,     16.83 
 776.112,     12.34 
 776.425,     39.28 
 776.738,     21.32 
 777.051,    138.03 
 777.364,    708.09 
 777.676,   1067.19 
 777.989,    773.18 
 778.302,    476.92 
 778.614,    371.44 
 778.927,    218.82 
 779.240,    180.67 
 779.552,    153.74 
 779.865,    517.32 
 780.177,     43.76 
 780.489,     39.28 
 780.802,     30.30 
 781.114,     -5.61 
 781.426,     21.32 
 781.738,    -30.30 
 782.050,    -43.76 
 782.362,     97.63 
 782.674,    -61.72 
 782.986,    -95.38 
 783.298,    -12.34 
 783.610,     39.28 
 783.922,    -57.23 
 784.233,     59.48 
 784.545,     14.59 
 784.857,      3.37 
 785.168,    -14.59 
 785.480,    -10.10 
 785.791,     21.32 
 786.103,      7.86 
 786.414,     30.30 
 786.725,    -10.10 
 787.037,     41.52 
 787.348,     10.10 
 787.659,     34.79 
 787.970,    -23.57 
 788.281,    -59.48 
 788.592,     16.83 
 788.903,     12.34 
 789.214,    -43.76 
 789.525,    -25.81 
 789.836,    -32.54 
 790.146,    -37.03 
 790.457,    -14.59 
 790.768,     10.10 
 791.078,     10.10 
 791.389,    -68.45 
 791.699,     77.43 
 792.010,     -3.37 
 792.320,     19.08 
 792.630,     -5.61 
 792.940,      5.61 
 793.251,    -63.96 
 793.561,    -10.10 
 793.871,     57.23 
 794.181,    -50.50 
 794.491,      7.86 
 794.801,    -25.81 
 795.111,     -1.12 
 795.421,    -43.76 
 795.730,     -3.37 
 796.040,      7.86 
 796.350,    -19.08 
 796.659,    -63.96 
 796.969,    -32.54 
 797.279,     54.99 
 797.588,    -12.34 
 797.897,    -61.72 
 798.207,     -3.37 
 798.516,    -12.34 
 798.825,     -7.86 
 799.135,    -14.59 
 799.444,     16.83 
 799.753,    -23.57 
 800.062,     43.76 
 800.371,    -16.83 
 800.680,    -50.50 
 800.989,    -30.30 
 801.298,     21.32 
 801.606,      1.12 
 801.915,    -10.10 
 802.224,     -7.86 
 802.532,     28.05 
 802.841,     46.01 
 803.149,    -50.50 
 803.458,      7.86 
 803.766,     14.59 
 804.075,     12.34 
 804.383,    -77.43 
 804.691,    -43.76 
 804.999,     48.25 
 805.308,      3.37 
 805.616,    -48.25 
 805.924,     48.25 
 806.232,     54.99 
 806.540,    -21.32 
 806.848,      7.86 
 807.155,    -23.57 
 807.463,     37.03 
 807.771,    -10.10 
 808.079,    -14.59 
 808.386,      3.37 
 808.694,     23.57 
 809.001,     -1.12 
 809.309,    -93.14 
 809.616,    -19.08 
 809.924,    106.61 
 810.231,    -19.08 
 810.538,     19.08 
 810.845,    -43.76 
 811.152,    -81.92 
 811.460,    -41.52 
 811.767,     14.59 
 812.074,     39.28 
 812.380,    -12.34 
 812.687,     19.08 
 812.994,    -52.74 
 813.301,     19.08 
 813.608,     -5.61 
 813.914,      3.37 
 814.221,    -48.25 
 814.527,    -23.57 
 814.834,     -1.12 
 815.140,     10.10 
 815.447,     30.30 
 815.753,    -12.34 
 816.059,    -59.48 
 816.366,     16.83 
 816.672,     16.83 
 816.978,    -39.28 
 817.284,    -50.50 
 817.590,    -21.32 
 817.896,    -32.54 
 818.202,    -41.52 
 818.508,     19.08 
 818.814,     21.32 
 819.119,    -61.72 
 819.425,    -21.32 
 819.731,    -39.28 
 820.036,    -59.48 
 820.342,    -25.81 
 820.647,    -16.83 
 820.953,     61.72 
 821.258,    -50.50 
 821.564,      3.37 
 821.869,    -30.30 
 822.174,    -59.48 
 822.479,     30.30 
 822.784,    -46.01 
 823.089,     -1.12 
 823.394,    -41.52 
 823.699,    -10.10 
 824.004,    -75.19 
 824.309,    -21.32 
 824.614,    -28.05 
 824.919,     28.05 
 825.223,     48.25 
 825.528,     14.59 
 825.833,     16.83 
 826.137,     41.52 
 826.442,     34.79 
 826.746,      3.37 
 827.050,     19.08 
 827.355,     10.10 
 827.659,     -3.37 
 827.963,     -5.61 
 828.267,     63.96 
 828.571,     28.05 
 828.875,      7.86 
 829.179,     54.99 
 829.483,     10.10 
 829.787,     30.30 
 830.091,    -50.50 
 830.395,      3.37 
 830.699,    -37.03 
 831.002,     39.28 
 831.306,      3.37 
 831.609,     63.96 
 831.913,      7.86 
 832.216,     48.25 
 832.520,    -12.34 
 832.823,     39.28 
 833.126,     12.34 
 833.430,     -3.37 
 833.733,     10.10 
 834.036,    -32.54 
 834.339,    -19.08 
 834.642,     -7.86 
 834.945,    -79.67 
 835.248,     39.28 
 835.551,    -19.08 
 835.854,     19.08 
 836.156,     14.59 
 836.459,    -32.54 
 836.762,    -19.08 
 837.064,     34.79 
 837.367,     14.59 
 837.669,    -37.03 
 837.972,     21.32 
 838.274,    -14.59 
 838.576,    -43.76 
 838.879,     10.10 
 839.181,    -19.08 
 839.483,    -21.32 
 839.785,    -41.52 
 840.087,      7.86 
 840.389,   -102.12 
 840.691,    -46.01 
 840.993,     43.76 
 841.295,    -46.01 
 841.597,    -54.99 
 841.898,     52.74 
 842.200,     30.30 
 842.502,     19.08 
 842.803,    -28.05 
 843.105,     -1.12 
 843.406,      1.12 
 843.708,    -68.45 
 844.009,    -37.03 
 844.310,    -48.25 
 844.611,     28.05 
 844.913,     70.70 
 845.214,    117.83 
 845.515,    230.05 
 845.816,    223.31 
 846.117,    135.78 
 846.418,     52.74 
 846.719,     14.59 
 847.019,     21.32 
 847.320,    -25.81 
 847.621,    -57.23 
 847.921,     23.57 
 848.222,    -41.52 
 848.523,    -37.03 
 848.823,    -32.54 
 849.123,     32.54 
 849.424,     54.99 
 849.724,     10.10 
 850.024,    -12.34 
 850.325,     -7.86 
 850.625,     14.59 
 850.925,      3.37 
 851.225,     -5.61 
 851.525,     -3.37 
 851.825,      7.86 
 852.125,    -14.59 
 852.425,      3.37 
 852.724,     30.30 
 853.024,    -59.48 
 853.324,     -7.86 
 853.623,    -19.08 
 853.923,     72.94 
 854.222,    -30.30 
 854.522,    -84.16 
 854.821,    -14.59 
 855.120,    -12.34 
 855.420,    -14.59 
 855.719,    -43.76 
 856.018,     21.32 
 856.317,    -19.08 
 856.616,     10.10 
 856.915,    -12.34 
 857.214,     37.03 
 857.513,    -25.81 
 857.812,    -21.32 
 858.111,      1.12 
 858.409,    -16.83 
 858.708,     34.79 
 859.007,     61.72 
 859.305,    -10.10 
 859.604,     14.59 
 859.902,      5.61 
 860.201,    -39.28 
 860.499,    -37.03 
 860.797,   -117.83 
 861.096,     39.28 
 861.394,    -14.59 
 861.692,     -7.86 
 861.990,    -99.87 
 862.288,    -25.81 
 862.586,    -16.83 
 862.884,    -57.23 
 863.182,     23.57 
 863.479,     28.05 
 863.777,     68.45 
 864.075,     -5.61 
 864.373,     46.01 
 864.670,    -32.54 
 864.968,    -10.10 
 865.265,    -57.23 
 865.563,     14.59 
 865.860,    -34.79 
 866.157,     -5.61 
 866.454,      7.86 
 866.752,     52.74 
 867.049,     34.79 
 867.346,     -5.61 
 867.643,    -46.01 
 867.940,     16.83 
 868.237,     14.59 
 868.534,     39.28 
 868.830,      7.86 
 869.127,    -19.08 
 869.424,    -97.63 
 869.720,    -81.92 
 870.017,    -46.01 
 870.314,    -32.54 
 870.610,    -59.48 
 870.906,     23.57 
 871.203,     -5.61 
 871.499,     43.76 
 871.795,    -14.59 
 872.092,    -34.79 
 872.388,    -23.57 
 872.684,     39.28 
 872.980,    -48.25 
 873.276,     12.34 
 873.572,    -59.48 
 873.868,      3.37 
 874.163,     63.96 
 874.459,    -25.81 
 874.755,     25.81 
 875.051,    -12.34 
 875.346,    -34.79 
 875.642,    -21.32 
 875.937,     41.52 
 876.233,     34.79 
 876.528,    106.61 
 876.823,    -16.83 
 877.119,    -28.05 
 877.414,    -19.08 
 877.709,     37.03 
 878.004,     19.08 
 878.299,    -68.45 
 878.594,    -50.50 
 878.889,      5.61 
 879.184,    -32.54 
 879.479,    -77.43 
 879.773,     -1.12 
 880.068,      1.12 
 880.363,     54.99 
 880.657,     -5.61 
 880.952,    -32.54 
 881.246,    -19.08 
