Wavelength,Intensity
 177.185,    -39.56 
 177.571,    -39.56 
 177.957,    -39.56 
 178.343,    -57.51 
 178.729,     43.48 
 179.115,    -46.29 
 179.500,     27.77 
 179.886,    -14.87 
 180.272,      3.09 
 180.658,     39.00 
 181.043,     -3.65 
 181.429,     -1.40 
 181.815,     12.06 
 182.200,     27.77 
 182.586,     30.02 
 182.972,     -3.65 
 183.357,     12.06 
 183.743,    -28.33 
 184.128,     54.71 
 184.513,     34.51 
 184.899,    -28.33 
 185.284,     50.22 
 185.670,     34.51 
 186.055,    -37.31 
 186.440,     -3.65 
 186.825,    -14.87 
 187.210,    -28.33 
 187.596,     -1.40 
 187.981,      7.57 
 188.366,      5.33 
 188.751,      7.57 
 189.136,    -21.60 
 189.521,    -21.60 
 189.906,     18.80 
 190.291,    -32.82 
 190.676,      7.57 
 191.060,    -46.29 
 191.445,      9.82 
 191.830,      3.09 
 192.215,      3.09 
 192.599,     -1.40 
 192.984,     18.80 
 193.369,     65.93 
 193.753,     30.02 
 194.138,     14.31 
 194.522,    -19.36 
 194.907,    -23.85 
 195.291,    -28.33 
 195.676,    -23.85 
 196.060,     39.00 
 196.445,     39.00 
 196.829,     41.24 
 197.213,    -37.31 
 197.597,     54.71 
 197.982,     -1.40 
 198.366,    -26.09 
 198.750,    -50.78 
 199.134,     30.02 
 199.518,     25.53 
 199.902,     34.51 
 200.286,    -41.80 
 200.670,     -8.14 
 201.054,    -64.24 
 201.438,    -64.24 
 201.822,     36.75 
 202.206,    -32.82 
 202.590,    -37.31 
 202.973,      7.57 
 203.357,     36.75 
 203.741,     14.31 
 204.124,    -37.31 
 204.508,    -35.07 
 204.892,     47.97 
 205.275,    -23.85 
 205.659,    -50.78 
 206.042,     18.80 
 206.426,    -82.20 
 206.809,      3.09 
 207.193,      7.57 
 207.576,    -19.36 
 207.959,     34.51 
 208.342,    -68.73 
 208.726,     12.06 
 209.109,    -28.33 
 209.492,      3.09 
 209.875,    -26.09 
 210.258,      0.84 
 210.641,     36.75 
 211.025,     -3.65 
 211.408,    -59.76 
 211.790,    -75.47 
 212.173,    -46.29 
 212.556,    -32.82 
 212.939,     14.31 
 213.322,    -50.78 
 213.705,    -19.36 
 214.088,    -41.80 
 214.470,    -14.87 
 214.853,    -21.60 
 215.236,    -21.60 
 215.618,    -50.78 
 216.001,    -57.51 
 216.383,    -14.87 
 216.766,     21.04 
 217.148,     52.46 
 217.531,     79.39 
 217.913,    -28.33 
 218.296,     61.44 
 218.678,      3.09 
 219.060,     -5.89 
 219.443,    -50.78 
 219.825,    -17.11 
 220.207,     -5.89 
 220.589,     21.04 
 220.971,    -53.02 
 221.353,     -3.65 
 221.735,    -64.24 
 222.118,     12.06 
 222.500,    -32.82 
 222.881,     30.02 
 223.263,    -12.62 
 223.645,     18.80 
 224.027,      0.84 
 224.409,     16.55 
 224.791,    -68.73 
 225.172,    -64.24 
 225.554,     30.02 
 225.936,     14.31 
 226.317,    -19.36 
 226.699,    -30.58 
 227.081,    -28.33 
 227.462,     -5.89 
 227.844,    -62.00 
 228.225,     54.71 
 228.607,    -55.27 
 228.988,      7.57 
 229.369,    -41.80 
 229.751,     56.95 
 230.132,    -53.02 
 230.513,     50.22 
 230.894,     -3.65 
 231.276,     45.73 
 231.657,     61.44 
 232.038,    -28.33 
 232.419,    -46.29 
 232.800,     39.00 
 233.181,    -28.33 
 233.562,     59.19 
 233.943,     12.06 
 234.324,     43.48 
 234.705,    -39.56 
 235.085,    -10.38 
 235.466,     23.29 
 235.847,    -32.82 
 236.228,     50.22 
 236.608,     54.71 
 236.989,     41.24 
 237.370,     14.31 
 237.750,   -102.40 
 238.131,     16.55 
 238.511,    -41.80 
 238.892,      7.57 
 239.272,    -41.80 
 239.653,      9.82 
 240.033,    -26.09 
 240.413,    -35.07 
 240.794,    -21.60 
 241.174,     -8.14 
 241.554,    -28.33 
 241.934,    -44.05 
 242.314,     21.04 
 242.694,     34.51 
 243.075,    -19.36 
 243.455,     39.00 
 243.835,     -3.65 
 244.215,    -12.62 
 244.595,     32.26 
 244.974,     21.04 
 245.354,      3.09 
 245.734,    -39.56 
 246.114,    -70.98 
 246.494,      5.33 
 246.873,    -21.60 
 247.253,    -19.36 
 247.633,     -1.40 
 248.012,    -50.78 
 248.392,    -68.73 
 248.771,     23.29 
 249.151,    -10.38 
 249.530,     25.53 
 249.910,     23.29 
 250.289,    -48.53 
 250.669,    -62.00 
 251.048,    -28.33 
 251.427,    -44.05 
 251.806,     45.73 
 252.186,    -21.60 
 252.565,      9.82 
 252.944,     23.29 
 253.323,     52.46 
 253.702,     -8.14 
 254.081,     -3.65 
 254.460,    -17.11 
 254.839,     30.02 
 255.218,    -37.31 
 255.597,    -14.87 
 255.976,    -39.56 
 256.355,     -3.65 
 256.733,     72.66 
 257.112,     -1.40 
 257.491,      9.82 
 257.870,    -28.33 
 258.248,    -12.62 
 258.627,    -17.11 
 259.005,    -79.95 
 259.384,    -14.87 
 259.762,   -104.64 
 260.141,    -41.80 
 260.519,     21.04 
 260.898,      9.82 
 261.276,     39.00 
 261.654,     -3.65 
 262.033,     68.17 
 262.411,     43.48 
 262.789,    -28.33 
 263.167,      7.57 
 263.545,    -86.69 
 263.924,     -3.65 
 264.302,     43.48 
 264.680,    -21.60 
 265.058,    -68.73 
 265.436,      7.57 
 265.813,     36.75 
 266.191,     21.04 
 266.569,      7.57 
 266.947,    -41.80 
 267.325,     -8.14 
 267.702,    -21.60 
 268.080,     -1.40 
 268.458,      3.09 
 268.835,     50.22 
 269.213,      9.82 
 269.591,    -12.62 
 269.968,      3.09 
 270.346,      7.57 
 270.723,     52.46 
 271.100,    -35.07 
 271.478,     41.24 
 271.855,    -17.11 
 272.232,    -14.87 
 272.610,      3.09 
 272.987,    -21.60 
 273.364,    -77.71 
 273.741,    -17.11 
 274.118,    -19.36 
 274.495,     43.48 
 274.872,     79.39 
 275.249,    -62.00 
 275.626,     21.04 
 276.003,    -17.11 
 276.380,      7.57 
 276.757,     -3.65 
 277.134,     47.97 
 277.511,    -17.11 
 277.887,     -8.14 
 278.264,     39.00 
 278.641,     52.46 
 279.018,     61.44 
 279.394,     43.48 
 279.771,      9.82 
 280.147,     63.68 
 280.524,     56.95 
 280.900,     56.95 
 281.277,     34.51 
 281.653,      7.57 
 282.029,     -5.89 
 282.406,     -5.89 
 282.782,      7.57 
 283.158,     36.75 
 283.534,    -44.05 
 283.910,     41.24 
 284.287,     36.75 
 284.663,     25.53 
 285.039,     81.64 
 285.415,     16.55 
 285.791,     63.68 
 286.167,     43.48 
 286.542,    -23.85 
 286.918,     74.91 
 287.294,     56.95 
 287.670,    101.84 
 288.046,     47.97 
 288.421,      3.09 
 288.797,     23.29 
 289.173,     39.00 
 289.548,    146.72 
 289.924,     97.35 
 290.299,     74.91 
 290.675,    110.81 
 291.050,    115.30 
 291.426,     79.39 
 291.801,     70.42 
 292.177,     90.62 
 292.552,     99.59 
 292.927,     -8.14 
 293.302,    -10.38 
 293.678,     56.95 
 294.053,     59.19 
 294.428,     90.62 
 294.803,     36.75 
 295.178,     65.93 
 295.553,      5.33 
 295.928,     61.44 
 296.303,     25.53 
 296.678,    133.26 
 297.053,     25.53 
 297.427,    160.19 
 297.802,     50.22 
 298.177,     12.06 
 298.552,     70.42 
 298.926,     54.71 
 299.301,     79.39 
 299.676,     45.73 
 300.050,     56.95 
 300.425,      0.84 
 300.799,     30.02 
 301.174,     70.42 
 301.548,     59.19 
 301.922,     43.48 
 302.297,     68.17 
 302.671,     79.39 
 303.045,     92.86 
 303.420,     72.66 
 303.794,     74.91 
 304.168,    139.99 
 304.542,    104.08 
 304.916,     79.39 
 305.290,     97.35 
 305.664,    101.84 
 306.038,    148.97 
 306.412,    142.24 
 306.786,    160.19 
 307.160,    261.19 
 307.534,    469.91 
 307.907,    759.43 
 308.281,    930.00 
 308.655,    921.02 
 309.028,    885.12 
 309.402,   1116.28 
 309.776,   1228.50 
 310.149,   1345.21 
 310.523,   1491.09 
 310.896,   1264.41 
 311.270,   1179.13 
 311.643,    963.67 
 312.016,    880.63 
 312.390,    889.60 
 312.763,    835.74 
 313.136,    840.23 
 313.509,    840.23 
 313.883,    898.58 
 314.256,    781.88 
 314.629,    788.61 
 315.002,    797.59 
 315.375,    860.43 
 315.748,    748.21 
 316.121,    790.85 
 316.494,    723.52 
 316.867,    658.44 
 317.240,    734.74 
 317.612,    613.55 
 317.985,    532.75 
 318.358,    566.42 
 318.730,    481.13 
 319.103,    454.20 
 319.476,    431.76 
 319.848,    447.47 
 320.221,    373.40 
 320.593,    438.49 
 320.966,    301.58 
 321.338,    306.07 
 321.711,    341.98 
 322.083,    359.94 
 322.455,    357.69 
 322.828,    409.31 
 323.200,    294.85 
 323.572,    328.52 
 323.944,    247.72 
 324.316,    333.01 
 324.688,    249.96 
 325.060,    310.56 
 325.432,    274.65 
 325.804,    223.03 
 326.176,    229.77 
 326.548,    216.30 
 326.920,    223.03 
 327.292,    189.37 
 327.664,    173.66 
 328.035,    187.12 
 328.407,    196.10 
 328.779,    223.03 
 329.150,    223.03 
 329.522,    207.32 
 329.893,    205.08 
 330.265,    162.43 
 330.636,    187.12 
 331.008,    162.43 
 331.379,     63.68 
 331.750,    198.34 
 332.122,    216.30 
 332.493,    166.92 
 332.864,    196.10 
 333.236,    187.12 
 333.607,    182.63 
 333.978,    209.57 
 334.349,    146.72 
 334.720,     83.88 
 335.091,    166.92 
 335.462,    144.48 
 335.833,    216.30 
 336.204,    211.81 
 336.575,    245.48 
 336.945,    205.08 
 337.316,    279.14 
 337.687,    157.95 
 338.058,    227.52 
 338.428,    223.03 
 338.799,    238.74 
 339.169,    202.83 
 339.540,    171.41 
 339.911,    182.63 
 340.281,    238.74 
 340.651,    191.61 
 341.022,    146.72 
 341.392,    144.48 
 341.762,    182.63 
 342.133,    229.77 
 342.503,    175.90 
 342.873,    153.46 
 343.243,    191.61 
 343.613,    187.12 
 343.984,    205.08 
 344.354,    191.61 
 344.724,    227.52 
 345.094,    193.86 
 345.464,    166.92 
 345.833,    252.21 
 346.203,    202.83 
 346.573,    182.63 
 346.943,    162.43 
 347.313,    207.32 
 347.682,    229.77 
 348.052,    198.34 
 348.422,    227.52 
 348.791,    198.34 
 349.161,    211.81 
 349.530,    178.15 
 349.900,    146.72 
 350.269,    189.37 
 350.638,    178.15 
 351.008,    135.50 
 351.377,    252.21 
 351.746,    249.96 
 352.116,    243.23 
 352.485,    200.59 
 352.854,    160.19 
 353.223,    198.34 
 353.592,    202.83 
 353.961,    155.70 
 354.330,    216.30 
 354.699,    245.48 
 355.068,    180.39 
 355.437,    299.34 
 355.806,    142.24 
 356.175,    164.68 
 356.543,    162.43 
 356.912,    247.72 
 357.281,    200.59 
 357.650,    245.48 
 358.018,    223.03 
 358.387,    184.88 
 358.755,    142.24 
 359.124,    218.54 
 359.492,    243.23 
 359.861,    207.32 
 360.229,    191.61 
 360.597,    308.32 
 360.966,    216.30 
 361.334,    193.86 
 361.702,    234.25 
 362.070,    187.12 
 362.438,    258.94 
 362.807,    175.90 
 363.175,    270.16 
 363.543,    205.08 
 363.911,    198.34 
 364.279,    234.25 
 364.646,    196.10 
 365.014,    189.37 
 365.382,    151.21 
 365.750,    153.46 
 366.118,    245.48 
 366.485,    171.41 
 366.853,    189.37 
 367.221,    223.03 
 367.588,    160.19 
 367.956,    249.96 
 368.323,    187.12 
 368.691,    175.90 
 369.058,    236.50 
 369.426,    225.28 
 369.793,    209.57 
 370.160,    178.15 
 370.528,    160.19 
 370.895,    218.54 
 371.262,    184.88 
 371.629,    153.46 
 371.996,    122.04 
 372.363,    182.63 
 372.730,    157.95 
 373.097,    171.41 
 373.464,    157.95 
 373.831,    196.10 
 374.198,    225.28 
 374.565,    135.50 
 374.932,    205.08 
 375.299,    187.12 
 375.665,    189.37 
 376.032,    175.90 
 376.399,    160.19 
 376.765,    191.61 
 377.132,    151.21 
 377.498,    243.23 
 377.865,    243.23 
 378.231,    209.57 
 378.598,    238.74 
 378.964,    189.37 
 379.331,    243.23 
 379.697,    198.34 
 380.063,    151.21 
 380.429,    187.12 
 380.795,    189.37 
 381.162,    124.28 
 381.528,    198.34 
 381.894,    249.96 
 382.260,    216.30 
 382.626,    236.50 
 382.992,    160.19 
 383.358,    166.92 
 383.723,    209.57 
 384.089,    171.41 
 384.455,    184.88 
 384.821,    162.43 
 385.186,    184.88 
 385.552,    249.96 
 385.918,    214.05 
 386.283,    236.50 
 386.649,    198.34 
 387.014,    234.25 
 387.380,    223.03 
 387.745,    189.37 
 388.111,    265.67 
 388.476,    223.03 
 388.841,    169.17 
 389.206,    135.50 
 389.572,    205.08 
 389.937,    196.10 
 390.302,    191.61 
 390.667,    223.03 
 391.032,    223.03 
 391.397,    155.70 
 391.762,    207.32 
 392.127,    232.01 
 392.492,    160.19 
 392.857,    290.36 
 393.222,    166.92 
 393.587,    133.26 
 393.951,    137.75 
 394.316,    106.33 
 394.681,    124.28 
 395.045,    166.92 
 395.410,    187.12 
 395.774,    169.17 
 396.139,    133.26 
 396.503,    160.19 
 396.868,    223.03 
 397.232,    189.37 
 397.596,    205.08 
 397.961,    189.37 
 398.325,    220.79 
 398.689,    191.61 
 399.053,    227.52 
 399.418,    128.77 
 399.782,    157.95 
 400.146,    180.39 
 400.510,    187.12 
 400.874,    124.28 
 401.238,    234.25 
 401.602,    137.75 
 401.965,    142.24 
 402.329,    211.81 
 402.693,    128.77 
 403.057,    171.41 
 403.420,    169.17 
 403.784,    169.17 
 404.148,    178.15 
 404.511,    198.34 
 404.875,    182.63 
 405.238,    137.75 
 405.602,    202.83 
 405.965,    182.63 
 406.329,    155.70 
 406.692,    198.34 
 407.055,    160.19 
 407.418,    187.12 
 407.782,    189.37 
 408.145,    285.87 
 408.508,    153.46 
 408.871,    196.10 
 409.234,    193.86 
 409.597,    240.99 
 409.960,    229.77 
 410.323,    166.92 
 410.686,    216.30 
 411.049,    427.27 
 411.412,    267.92 
 411.774,    294.85 
 412.137,    232.01 
 412.500,     79.39 
 412.862,     81.64 
 413.225,     92.86 
 413.588,     83.88 
 413.950,    153.46 
 414.313,    139.99 
 414.675,     97.35 
 415.037,    146.72 
 415.400,    139.99 
 415.762,     90.62 
 416.124,    151.21 
 416.487,    162.43 
 416.849,     92.86 
 417.211,    236.50 
 417.573,     99.59 
 417.935,    155.70 
 418.297,    202.83 
 418.659,    171.41 
 419.021,    128.77 
 419.383,    162.43 
 419.745,    142.24 
 420.107,    191.61 
 420.469,    180.39 
 420.830,    135.50 
 421.192,    187.12 
 421.554,    164.68 
 421.915,    211.81 
 422.277,    173.66 
 422.638,    144.48 
 423.000,    180.39 
 423.361,    225.28 
 423.723,    115.30 
 424.084,    115.30 
 424.446,    104.08 
 424.807,    187.12 
 425.168,     88.37 
 425.529,     79.39 
 425.891,    137.75 
 426.252,    133.26 
 426.613,    119.79 
 426.974,    139.99 
 427.335,    175.90 
 427.696,    148.97 
 428.057,    142.24 
 428.418,    110.81 
 428.778,     97.35 
 429.139,    200.59 
 429.500,     92.86 
 429.861,    101.84 
 430.221,     56.95 
 430.582,     88.37 
 430.943,    151.21 
 431.303,     47.97 
 431.664,    162.43 
 432.024,    106.33 
 432.385,    227.52 
 432.745,    133.26 
 433.105,    144.48 
 433.466,    157.95 
 433.826,    169.17 
 434.186,    151.21 
 434.546,    169.17 
 434.907,    393.60 
 435.267,    770.65 
 435.627,    550.71 
 435.987,    193.86 
 436.347,    146.72 
 436.707,    124.28 
 437.067,    232.01 
 437.427,    146.72 
 437.786,    128.77 
 438.146,    151.21 
 438.506,     70.42 
 438.866,    178.15 
 439.225,    124.28 
 439.585,    160.19 
 439.944,    106.33 
 440.304,    115.30 
 440.663,    110.81 
 441.023,    133.26 
 441.382,     54.71 
 441.742,    193.86 
 442.101,    164.68 
 442.460,    124.28 
 442.820,    151.21 
 443.179,    198.34 
 443.538,    101.84 
 443.897,    151.21 
 444.256,    131.01 
 444.615,    144.48 
 444.974,     61.44 
 445.333,     45.73 
 445.692,    133.26 
 446.051,    182.63 
 446.410,    117.55 
 446.768,    173.66 
 447.127,     88.37 
 447.486,    106.33 
 447.845,    187.12 
 448.203,     79.39 
 448.562,    101.84 
 448.920,    128.77 
 449.279,    128.77 
 449.637,     63.68 
 449.996,    169.17 
 450.354,    122.04 
 450.712,     18.80 
 451.071,    180.39 
 451.429,    133.26 
 451.787,    115.30 
 452.145,     72.66 
 452.503,     92.86 
 452.861,     59.19 
 453.219,    180.39 
 453.577,     88.37 
 453.935,      3.09 
 454.293,     90.62 
 454.651,    142.24 
 455.009,    128.77 
 455.367,    126.53 
 455.725,    187.12 
 456.082,    160.19 
 456.440,    207.32 
 456.798,    180.39 
 457.155,    124.28 
 457.513,    135.50 
 457.870,    200.59 
 458.228,    160.19 
 458.585,    175.90 
 458.942,    171.41 
 459.300,     86.13 
 459.657,    101.84 
 460.014,     99.59 
 460.371,     90.62 
 460.729,    108.57 
 461.086,    108.57 
 461.443,    117.55 
 461.800,     59.19 
 462.157,    104.08 
 462.514,     97.35 
 462.871,    151.21 
 463.227,     99.59 
 463.584,    182.63 
 463.941,    117.55 
 464.298,    238.74 
 464.655,    247.72 
 465.011,    166.92 
 465.368,     86.13 
 465.724,     83.88 
 466.081,    131.01 
 466.437,    128.77 
 466.794,    110.81 
 467.150,    117.55 
 467.507,    106.33 
 467.863,    139.99 
 468.219,     86.13 
 468.575,    122.04 
 468.932,    164.68 
 469.288,    115.30 
 469.644,    113.06 
 470.000,     88.37 
 470.356,    113.06 
 470.712,    142.24 
 471.068,     56.95 
 471.424,      3.09 
 471.780,    106.33 
 472.135,    151.21 
 472.491,    108.57 
 472.847,     90.62 
 473.203,    178.15 
 473.558,    133.26 
 473.914,    151.21 
 474.269,     90.62 
 474.625,    117.55 
 474.980,     59.19 
 475.336,    113.06 
 475.691,    144.48 
 476.046,     59.19 
 476.402,    119.79 
 476.757,     61.44 
 477.112,     86.13 
 477.467,    148.97 
 477.823,     79.39 
 478.178,     88.37 
 478.533,     88.37 
 478.888,    178.15 
 479.243,    131.01 
 479.598,    169.17 
 479.952,    124.28 
 480.307,     79.39 
 480.662,    144.48 
 481.017,    126.53 
 481.372,    135.50 
 481.726,     88.37 
 482.081,    173.66 
 482.435,    122.04 
 482.790,    108.57 
 483.144,     70.42 
 483.499,    137.75 
 483.853,    173.66 
 484.208,     43.48 
 484.562,    182.63 
 484.916,    164.68 
 485.270,    146.72 
 485.625,    196.10 
 485.979,    142.24 
 486.333,    407.07 
 486.687,   1313.79 
 487.041,   4478.32 
 487.395,   9503.42 
 487.749,   4725.20 
 488.103,   1372.14 
 488.457,    420.53 
 488.810,    254.45 
 489.164,    166.92 
 489.518,    187.12 
 489.872,     92.86 
 490.225,     39.00 
 490.579,    151.21 
 490.932,    108.57 
 491.286,    139.99 
 491.639,     99.59 
 491.993,    119.79 
 492.346,     74.91 
 492.700,     70.42 
 493.053,     77.15 
 493.406,    135.50 
 493.759,    214.05 
 494.112,    187.12 
 494.466,    234.25 
 494.819,    279.14 
 495.172,    135.50 
 495.525,     90.62 
 495.878,     68.17 
 496.231,    106.33 
 496.583,    160.19 
 496.936,    171.41 
 497.289,    135.50 
 497.642,    135.50 
 497.994,    108.57 
 498.347,    214.05 
 498.700,    196.10 
 499.052,    193.86 
 499.405,     92.86 
 499.757,    101.84 
 500.110,     45.73 
 500.462,     65.93 
 500.814,    106.33 
 501.167,    151.21 
 501.519,    157.95 
 501.871,    126.53 
 502.223,    164.68 
 502.575,    162.43 
 502.928,    108.57 
 503.280,    119.79 
 503.632,     90.62 
 503.984,     79.39 
 504.335,    110.81 
 504.687,    151.21 
 505.039,     65.93 
 505.391,     79.39 
 505.743,     74.91 
 506.094,     65.93 
 506.446,    166.92 
 506.798,     72.66 
 507.149,    187.12 
 507.501,    124.28 
 507.852,     79.39 
 508.204,    189.37 
 508.555,    115.30 
 508.906,    115.30 
 509.258,     92.86 
 509.609,     63.68 
 509.960,     95.10 
 510.311,     99.59 
 510.663,    106.33 
 511.014,    119.79 
 511.365,    178.15 
 511.716,     81.64 
 512.067,     79.39 
 512.418,     70.42 
 512.768,     79.39 
 513.119,    124.28 
 513.470,    128.77 
 513.821,     59.19 
 514.171,     86.13 
 514.522,     59.19 
 514.873,    108.57 
 515.223,     95.10 
 515.574,     43.48 
 515.924,     86.13 
 516.275,     56.95 
 516.625,     88.37 
 516.975,    115.30 
 517.326,    131.01 
 517.676,    115.30 
 518.026,     90.62 
 518.376,    124.28 
 518.727,    115.30 
 519.077,     72.66 
 519.427,    117.55 
 519.777,     68.17 
 520.127,    164.68 
 520.477,     79.39 
 520.826,     90.62 
 521.176,    101.84 
 521.526,     47.97 
 521.876,     92.86 
 522.225,      3.09 
 522.575,     65.93 
 522.925,    131.01 
 523.274,     52.46 
 523.624,    104.08 
 523.973,    110.81 
 524.323,     88.37 
 524.672,    139.99 
 525.021,     79.39 
 525.371,     43.48 
 525.720,     47.97 
 526.069,     81.64 
 526.418,     70.42 
 526.767,     72.66 
 527.117,    119.79 
 527.466,     65.93 
 527.815,    160.19 
 528.164,     99.59 
 528.512,    124.28 
 528.861,     92.86 
 529.210,     72.66 
 529.559,     39.00 
 529.908,    144.48 
 530.256,     79.39 
 530.605,     52.46 
 530.954,     65.93 
 531.302,    106.33 
 531.651,    144.48 
 531.999,     88.37 
 532.347,     95.10 
 532.696,    106.33 
 533.044,     74.91 
 533.392,     54.71 
 533.741,     34.51 
 534.089,    133.26 
 534.437,      9.82 
 534.785,     45.73 
 535.133,      7.57 
 535.481,     -1.40 
 535.829,     79.39 
 536.177,     39.00 
 536.525,     61.44 
 536.873,     50.22 
 537.221,    101.84 
 537.568,     52.46 
 537.916,    106.33 
 538.264,     72.66 
 538.611,      3.09 
 538.959,    115.30 
 539.307,     92.86 
 539.654,     25.53 
 540.001,     72.66 
 540.349,     79.39 
 540.696,     12.06 
 541.044,     77.15 
 541.391,     77.15 
 541.738,     79.39 
 542.085,    135.50 
 542.432,     39.00 
 542.779,     59.19 
 543.126,     43.48 
 543.473,     99.59 
 543.820,     97.35 
 544.167,     52.46 
 544.514,     54.71 
 544.861,    119.79 
 545.208,     36.75 
 545.555,    151.21 
 545.901,     86.13 
 546.248,     81.64 
 546.595,    119.79 
 546.941,     52.46 
 547.288,     21.04 
 547.634,     12.06 
 547.980,     56.95 
 548.327,     16.55 
 548.673,    128.77 
 549.019,     99.59 
 549.366,     63.68 
 549.712,     65.93 
 550.058,     27.77 
 550.404,     72.66 
 550.750,     81.64 
 551.096,     95.10 
 551.442,     68.17 
 551.788,     41.24 
 552.134,     74.91 
 552.480,     -3.65 
 552.826,    -26.09 
 553.171,     86.13 
 553.517,     70.42 
 553.863,     47.97 
 554.208,     27.77 
 554.554,     30.02 
 554.900,     99.59 
 555.245,     43.48 
 555.590,     45.73 
 555.936,     61.44 
 556.281,     41.24 
 556.626,     16.55 
 556.972,     72.66 
 557.317,     99.59 
 557.662,     43.48 
 558.007,    115.30 
 558.352,     79.39 
 558.697,     23.29 
 559.042,    -10.38 
 559.387,     68.17 
 559.732,     56.95 
 560.077,      3.09 
 560.422,     -1.40 
 560.767,    135.50 
 561.111,      7.57 
 561.456,     -5.89 
 561.801,    -10.38 
 562.145,     12.06 
 562.490,     95.10 
 562.834,     43.48 
 563.179,     83.88 
 563.523,     70.42 
 563.867,     21.04 
 564.212,     86.13 
 564.556,     56.95 
 564.900,     21.04 
 565.244,     61.44 
 565.589,     63.68 
 565.933,     52.46 
 566.277,     41.24 
 566.621,     83.88 
 566.965,    160.19 
 567.309,     65.93 
 567.652,     56.95 
 567.996,     61.44 
 568.340,    139.99 
 568.684,     79.39 
 569.027,     56.95 
 569.371,     70.42 
 569.715,    151.21 
 570.058,    178.15 
 570.402,     79.39 
 570.745,     99.59 
 571.089,    189.37 
 571.432,    108.57 
 571.775,    131.01 
 572.119,    175.90 
 572.462,     68.17 
 572.805,    117.55 
 573.148,     47.97 
 573.491,    151.21 
 573.834,    128.77 
 574.177,    205.08 
 574.520,    162.43 
 574.863,    162.43 
 575.206,    166.92 
 575.549,     81.64 
 575.892,     27.77 
 576.234,    101.84 
 576.577,    162.43 
 576.920,    182.63 
 577.262,    166.92 
 577.605,     97.35 
 577.947,    117.55 
 578.290,    137.75 
 578.632,    126.53 
 578.975,    153.46 
 579.317,     27.77 
 579.659,    173.66 
 580.001,    189.37 
 580.344,    164.68 
 580.686,    108.57 
 581.028,    119.79 
 581.370,    166.92 
 581.712,    142.24 
 582.054,    249.96 
 582.396,    330.76 
 582.738,    211.81 
 583.079,    193.86 
 583.421,     99.59 
 583.763,     65.93 
 584.105,    131.01 
 584.446,    198.34 
 584.788,    180.39 
 585.129,    169.17 
 585.471,     92.86 
 585.812,    196.10 
 586.154,    124.28 
 586.495,     32.26 
 586.836,    113.06 
 587.178,    187.12 
 587.519,     45.73 
 587.860,    153.46 
 588.201,    169.17 
 588.542,    171.41 
 588.883,    162.43 
 589.224,    175.90 
 589.565,    306.07 
 589.906,    319.54 
 590.247,    252.21 
 590.588,    119.79 
 590.929,    113.06 
 591.269,     92.86 
 591.610,     32.26 
 591.951,    133.26 
 592.291,    115.30 
 592.632,    128.77 
 592.972,    146.72 
 593.313,    182.63 
 593.653,     99.59 
 593.993,    274.65 
 594.334,    319.54 
 594.674,    297.10 
 595.014,    254.45 
 595.354,    173.66 
 595.694,    117.55 
 596.034,    191.61 
 596.375,    155.70 
 596.714,    164.68 
 597.054,    119.79 
 597.394,    164.68 
 597.734,    155.70 
 598.074,    227.52 
 598.414,    297.10 
 598.753,    301.58 
 599.093,    256.70 
 599.433,    218.54 
 599.772,    142.24 
 600.112,    173.66 
 600.451,    218.54 
 600.791,    115.30 
 601.130,     95.10 
 601.469,    131.01 
 601.809,     83.88 
 602.148,     97.35 
 602.487,    193.86 
 602.826,    315.05 
 603.165,    362.18 
 603.504,    303.83 
 603.843,    420.53 
 604.182,    393.60 
 604.521,    263.43 
 604.860,    108.57 
 605.199,    117.55 
 605.538,     83.88 
 605.877,    110.81 
 606.215,    106.33 
 606.554,     81.64 
 606.892,     86.13 
 607.231,    131.01 
 607.570,    205.08 
 607.908,    146.72 
 608.246,    153.46 
 608.585,    133.26 
 608.923,     92.86 
 609.261,     92.86 
 609.600,    115.30 
 609.938,    133.26 
 610.276,    113.06 
 610.614,    155.70 
 610.952,    171.41 
 611.290,    142.24 
 611.628,    126.53 
 611.966,     74.91 
 612.304,     30.02 
 612.641,     97.35 
 612.979,    155.70 
 613.317,    232.01 
 613.655,    189.37 
 613.992,    119.79 
 614.330,    270.16 
 614.667,    321.78 
 615.005,    104.08 
 615.342,     68.17 
 615.680,     36.75 
 616.017,     18.80 
 616.354,     99.59 
 616.691,    124.28 
 617.029,    209.57 
 617.366,    115.30 
 617.703,     79.39 
 618.040,     90.62 
 618.377,    155.70 
 618.714,     74.91 
 619.051,     81.64 
 619.388,     70.42 
 619.725,    -39.56 
 620.061,     56.95 
 620.398,    164.68 
 620.735,    227.52 
 621.071,    180.39 
 621.408,    108.57 
 621.745,     -3.65 
 622.081,    -17.11 
 622.417,     14.31 
 622.754,     99.59 
 623.090,    164.68 
 623.427,    189.37 
 623.763,    117.55 
 624.099,    146.72 
 624.435,    124.28 
 624.771,    108.57 
 625.107,     36.75 
 625.443,     86.13 
 625.779,    133.26 
 626.115,     23.29 
 626.451,     68.17 
 626.787,      7.57 
 627.123,     83.88 
 627.459,     -3.65 
 627.794,     83.88 
 628.130,     90.62 
 628.465,    137.75 
 628.801,    104.08 
 629.137,     43.48 
 629.472,     21.04 
 629.807,     65.93 
 630.143,     68.17 
 630.478,     52.46 
 630.813,     36.75 
 631.149,     27.77 
 631.484,    101.84 
 631.819,     -5.89 
 632.154,     63.68 
 632.489,     39.00 
 632.824,     81.64 
 633.159,     61.44 
 633.494,     79.39 
 633.829,    166.92 
 634.164,    126.53 
 634.498,     65.93 
 634.833,     81.64 
 635.168,     39.00 
 635.502,      9.82 
 635.837,     30.02 
 636.171,     23.29 
 636.506,     52.46 
 636.840,     43.48 
 637.175,     25.53 
 637.509,     72.66 
 637.843,     12.06 
 638.177,      7.57 
 638.512,    -35.07 
 638.846,      9.82 
 639.180,     50.22 
 639.514,     74.91 
 639.848,     79.39 
 640.182,     61.44 
 640.516,     70.42 
 640.850,      3.09 
 641.183,     54.71 
 641.517,     -8.14 
 641.851,    -14.87 
 642.184,     74.91 
 642.518,     54.71 
 642.852,     21.04 
 643.185,     43.48 
 643.519,     65.93 
 643.852,    707.81 
 644.185,     81.64 
 644.519,     25.53 
 644.852,     16.55 
 645.185,     52.46 
 645.519,     -5.89 
 645.852,      5.33 
 646.185,    -10.38 
 646.518,      7.57 
 646.851,     30.02 
 647.184,     25.53 
 647.517,     68.17 
 647.849,     18.80 
 648.182,    -14.87 
 648.515,    -10.38 
 648.848,     43.48 
 649.180,     36.75 
 649.513,    -39.56 
 649.846,     25.53 
 650.178,     65.93 
 650.511,    -23.85 
 650.843,      9.82 
 651.175,     45.73 
 651.508,    -14.87 
 651.840,      5.33 
 652.172,    -14.87 
 652.504,     56.95 
 652.837,     79.39 
 653.169,     88.37 
 653.501,     99.59 
 653.833,    115.30 
 654.165,    173.66 
 654.496,    171.41 
 654.828,    247.72 
 655.160,    171.41 
 655.492,    238.74 
 655.824,    375.65 
 656.155,   1064.66 
 656.487,   8917.64 
 656.818,  44034.98 
 657.150,  56645.97 
 657.481,  33580.80 
 657.813,  11922.83 
 658.144,   4738.66 
 658.475,   1895.07 
 658.807,    873.89 
 659.138,    359.94 
 659.469,    254.45 
 659.800,    247.72 
 660.131,    115.30 
 660.462,     63.68 
 660.793,     61.44 
 661.124,     97.35 
 661.455,     30.02 
 661.786,     59.19 
 662.117,    108.57 
 662.448,    135.50 
 662.778,     50.22 
 663.109,     90.62 
 663.440,     52.46 
 663.770,     59.19 
 664.101,     14.31 
 664.431,      7.57 
 664.761,     25.53 
 665.092,     39.00 
 665.422,     43.48 
 665.752,     27.77 
 666.083,     30.02 
 666.413,    -23.85 
 666.743,     43.48 
 667.073,      9.82 
 667.403,     -5.89 
 667.733,     -1.40 
 668.063,     72.66 
 668.393,     43.48 
 668.723,     86.13 
 669.052,     23.29 
 669.382,     36.75 
 669.712,     16.55 
 670.041,     39.00 
 670.371,     -5.89 
 670.700,     45.73 
 671.030,     34.51 
 671.359,      0.84 
 671.689,     61.44 
 672.018,      0.84 
 672.347,     27.77 
 672.677,     32.26 
 673.006,      7.57 
 673.335,    -37.31 
 673.664,    -73.22 
 673.993,    -21.60 
 674.322,      0.84 
 674.651,      0.84 
 674.980,     -8.14 
 675.309,    -23.85 
 675.638,      7.57 
 675.966,     43.48 
 676.295,    -46.29 
 676.624,     56.95 
 676.952,    -32.82 
 677.281,     30.02 
 677.610,      0.84 
 677.938,    -70.98 
 678.266,     25.53 
 678.595,     -8.14 
 678.923,     50.22 
 679.251,    -28.33 
 679.580,    -57.51 
 679.908,    -37.31 
 680.236,    -12.62 
 680.564,     81.64 
 680.892,    -17.11 
 681.220,     86.13 
 681.548,      7.57 
 681.876,    -26.09 
 682.204,    -35.07 
 682.531,    -12.62 
 682.859,    -41.80 
 683.187,      3.09 
 683.514,     21.04 
 683.842,     -5.89 
 684.170,     -5.89 
 684.497,     -5.89 
 684.825,     21.04 
 685.152,    -26.09 
 685.479,      9.82 
 685.807,     12.06 
 686.134,     47.97 
 686.461,    -50.78 
 686.788,     -5.89 
 687.115,    -57.51 
 687.442,    -39.56 
 687.769,     12.06 
 688.096,     39.00 
 688.423,      7.57 
 688.750,    -53.02 
 689.077,    -73.22 
 689.404,    -64.24 
 689.730,    -21.60 
 690.057,     23.29 
 690.384,    -23.85 
 690.710,     95.10 
 691.037,     25.53 
 691.363,     -3.65 
 691.689,    -12.62 
 692.016,     25.53 
 692.342,    -14.87 
 692.668,     12.06 
 692.995,     95.10 
 693.321,      7.57 
 693.647,    -10.38 
 693.973,    -19.36 
 694.299,     27.77 
 694.625,     79.39 
 694.951,    -23.85 
 695.277,    -64.24 
 695.603,     16.55 
 695.928,     90.62 
 696.254,     79.39 
 696.580,     70.42 
 696.905,     -5.89 
 697.231,    -19.36 
 697.557,     27.77 
 697.882,    -12.62 
 698.207,     47.97 
 698.533,     -3.65 
 698.858,    -73.22 
 699.183,     63.68 
 699.509,    -32.82 
 699.834,    -26.09 
 700.159,    -10.38 
 700.484,     32.26 
 700.809,     30.02 
 701.134,     61.44 
 701.459,     25.53 
 701.784,    -17.11 
 702.109,     27.77 
 702.434,     14.31 
 702.758,     16.55 
 703.083,     21.04 
 703.408,    -19.36 
 703.732,     12.06 
 704.057,     32.26 
 704.381,      0.84 
 704.706,     14.31 
 705.030,    -19.36 
 705.354,     56.95 
 705.679,      5.33 
 706.003,     12.06 
 706.327,    -37.31 
 706.651,     -1.40 
 706.975,      3.09 
 707.299,     74.91 
 707.623,    -26.09 
 707.947,    -26.09 
 708.271,     -3.65 
 708.595,     23.29 
 708.919,     -3.65 
 709.243,    -68.73 
 709.566,    -12.62 
 709.890,    -19.36 
 710.214,     56.95 
 710.537,     14.31 
 710.861,    -46.29 
 711.184,    -64.24 
 711.507,     30.02 
 711.831,    -39.56 
 712.154,     14.31 
 712.477,      3.09 
 712.801,     18.80 
 713.124,     50.22 
 713.447,     14.31 
 713.770,     30.02 
 714.093,    -14.87 
 714.416,     -1.40 
 714.739,     47.97 
 715.061,     36.75 
 715.384,    -17.11 
 715.707,     39.00 
 716.030,     27.77 
 716.352,     43.48 
 716.675,    -14.87 
 716.998,     56.95 
 717.320,     65.93 
 717.642,     45.73 
 717.965,     12.06 
 718.287,     50.22 
 718.610,     63.68 
 718.932,     16.55 
 719.254,    -28.33 
 719.576,    -64.24 
 719.898,    -28.33 
 720.220,    -64.24 
 720.542,    -59.76 
 720.864,     74.91 
 721.186,     47.97 
 721.508,     41.24 
 721.830,      9.82 
 722.152,      0.84 
 722.473,      0.84 
 722.795,    -37.31 
 723.116,     21.04 
 723.438,     25.53 
 723.760,     50.22 
 724.081,    -55.27 
 724.402,     16.55 
 724.724,      0.84 
 725.045,     -5.89 
 725.366,    -10.38 
 725.687,     95.10 
 726.009,      3.09 
 726.330,     45.73 
 726.651,      7.57 
 726.972,    -62.00 
 727.293,     18.80 
 727.614,     72.66 
 727.934,     18.80 
 728.255,     21.04 
 728.576,     59.19 
 728.897,     -5.89 
 729.217,    -46.29 
 729.538,     56.95 
 729.858,     74.91 
 730.179,     27.77 
 730.499,     39.00 
 730.820,    -17.11 
 731.140,    -14.87 
 731.460,     52.46 
 731.781,     41.24 
 732.101,      7.57 
 732.421,     54.71 
 732.741,      0.84 
 733.061,    -55.27 
 733.381,    -68.73 
 733.701,    -10.38 
 734.021,     -1.40 
 734.341,     61.44 
 734.661,     14.31 
 734.980,     -1.40 
 735.300,    -26.09 
 735.620,      3.09 
 735.939,     12.06 
 736.259,    -82.20 
 736.578,      0.84 
 736.898,     14.31 
 737.217,      7.57 
 737.536,     68.17 
 737.856,     47.97 
 738.175,     65.93 
 738.494,     -5.89 
 738.813,    117.55 
 739.132,     52.46 
 739.451,      0.84 
 739.770,     90.62 
 740.089,     52.46 
 740.408,     45.73 
 740.727,    -35.07 
 741.046,     30.02 
 741.364,     21.04 
 741.683,    -62.00 
 742.002,    -59.76 
 742.320,    -12.62 
 742.639,     47.97 
 742.957,    -41.80 
 743.276,     18.80 
 743.594,     54.71 
 743.912,     -8.14 
 744.231,     16.55 
 744.549,     21.04 
 744.867,     21.04 
 745.185,     61.44 
 745.503,     36.75 
 745.821,     27.77 
 746.139,     45.73 
 746.457,     47.97 
 746.775,    303.83 
 747.093,      0.84 
 747.410,     43.48 
 747.728,     52.46 
 748.046,     12.06 
 748.363,     30.02 
 748.681,    -35.07 
 748.998,     43.48 
 749.316,     54.71 
 749.633,     39.00 
 749.951,      3.09 
 750.268,      3.09 
 750.585,    -37.31 
 750.902,     39.00 
 751.220,     61.44 
 751.537,     25.53 
 751.854,     34.51 
 752.171,     88.37 
 752.488,     -5.89 
 752.805,     30.02 
 753.121,     81.64 
 753.438,     -8.14 
 753.755,      5.33 
 754.072,      3.09 
 754.388,    -41.80 
 754.705,     16.55 
 755.021,     39.00 
 755.338,     34.51 
 755.654,     18.80 
 755.971,     27.77 
 756.287,    -57.51 
 756.603,     -3.65 
 756.919,     36.75 
 757.236,     18.80 
 757.552,     21.04 
 757.868,     74.91 
 758.184,     72.66 
 758.500,     27.77 
 758.816,      3.09 
 759.132,     50.22 
 759.447,     79.39 
 759.763,     50.22 
 760.079,     30.02 
 760.395,     65.93 
 760.710,     56.95 
 761.026,     50.22 
 761.341,    -17.11 
 761.657,     43.48 
 761.972,      7.57 
 762.287,     32.26 
 762.603,    -10.38 
 762.918,    -39.56 
 763.233,     63.68 
 763.548,    -30.58 
 763.863,     12.06 
 764.178,     -3.65 
 764.493,    -28.33 
 764.808,    -26.09 
 765.123,     14.31 
 765.438,     39.00 
 765.753,     -8.14 
 766.068,    -35.07 
 766.382,     36.75 
 766.697,     45.73 
 767.011,     -5.89 
 767.326,    -59.76 
 767.640,    -26.09 
 767.955,    -62.00 
 768.269,     68.17 
 768.584,    -26.09 
 768.898,     18.80 
 769.212,     25.53 
 769.526,     -5.89 
 769.840,     -8.14 
 770.154,    -19.36 
 770.468,    -64.24 
 770.782,      7.57 
 771.096,     -8.14 
 771.410,     52.46 
 771.724,      9.82 
 772.038,     32.26 
 772.351,      0.84 
 772.665,     61.44 
 772.979,     70.42 
 773.292,    -55.27 
 773.606,     47.97 
 773.919,     63.68 
 774.232,     -1.40 
 774.546,    -86.69 
 774.859,    -10.38 
 775.172,     23.29 
 775.486,     21.04 
 775.799,      0.84 
 776.112,    -35.07 
 776.425,    -32.82 
 776.738,    -10.38 
 777.051,     12.06 
 777.364,    326.27 
 777.676,    411.56 
 777.989,    359.94 
 778.302,    209.57 
 778.614,    119.79 
 778.927,    133.26 
 779.240,     74.91 
 779.552,     18.80 
 779.865,    535.00 
 780.177,    110.81 
 780.489,     27.77 
 780.802,     34.51 
 781.114,     -1.40 
 781.426,    -48.53 
 781.738,      9.82 
 782.050,     -1.40 
 782.362,      9.82 
 782.674,     43.48 
 782.986,    -57.51 
 783.298,    -39.56 
 783.610,     83.88 
 783.922,     52.46 
 784.233,    -10.38 
 784.545,    -21.60 
 784.857,    -12.62 
 785.168,    -12.62 
 785.480,     21.04 
 785.791,     36.75 
 786.103,     68.17 
 786.414,      3.09 
 786.725,     -8.14 
 787.037,     21.04 
 787.348,      7.57 
 787.659,    -44.05 
 787.970,      0.84 
 788.281,     23.29 
 788.592,      7.57 
 788.903,     30.02 
 789.214,    -32.82 
 789.525,     30.02 
 789.836,     45.73 
 790.146,    -39.56 
 790.457,      3.09 
 790.768,     -3.65 
 791.078,    -32.82 
 791.389,    -35.07 
 791.699,     36.75 
 792.010,     39.00 
 792.320,    -26.09 
 792.630,      3.09 
 792.940,     12.06 
 793.251,     77.15 
 793.561,     36.75 
 793.871,     18.80 
 794.181,      7.57 
 794.491,     -5.89 
 794.801,    -28.33 
 795.111,    -10.38 
 795.421,    -39.56 
 795.730,     23.29 
 796.040,    -64.24 
 796.350,    -32.82 
 796.659,     -5.89 
 796.969,     -5.89 
 797.279,    -17.11 
 797.588,    -35.07 
 797.897,      0.84 
 798.207,     21.04 
 798.516,     21.04 
 798.825,     27.77 
 799.135,     83.88 
 799.444,    -14.87 
 799.753,     61.44 
 800.062,     27.77 
 800.371,     97.35 
 800.680,    -23.85 
 800.989,     27.77 
 801.298,     36.75 
 801.606,    -26.09 
 801.915,     -3.65 
 802.224,      7.57 
 802.532,    -46.29 
 802.841,     16.55 
 803.149,      9.82 
 803.458,     12.06 
 803.766,     12.06 
 804.075,    -10.38 
 804.383,    -23.85 
 804.691,     18.80 
 804.999,     59.19 
 805.308,     25.53 
 805.616,    -32.82 
 805.924,     68.17 
 806.232,     36.75 
 806.540,     -5.89 
 806.848,    -10.38 
 807.155,     43.48 
 807.463,    -28.33 
 807.771,    -28.33 
 808.079,      9.82 
 808.386,    -14.87 
 808.694,     47.97 
 809.001,    -17.11 
 809.309,     41.24 
 809.616,    -77.71 
 809.924,    115.30 
 810.231,      7.57 
 810.538,     -8.14 
 810.845,    -53.02 
 811.152,     -1.40 
 811.460,      3.09 
 811.767,     -8.14 
 812.074,      0.84 
 812.380,     25.53 
 812.687,     43.48 
 812.994,      0.84 
 813.301,     14.31 
 813.608,     23.29 
 813.914,     88.37 
 814.221,     50.22 
 814.527,    -21.60 
 814.834,    -79.95 
 815.140,    -91.18 
 815.447,     -3.65 
 815.753,      0.84 
 816.059,    -44.05 
 816.366,    -75.47 
 816.672,    -10.38 
 816.978,     14.31 
 817.284,     34.51 
 817.590,    -10.38 
 817.896,    -19.36 
 818.202,    -19.36 
 818.508,     54.71 
 818.814,     70.42 
 819.119,     47.97 
 819.425,      0.84 
 819.731,     30.02 
 820.036,     12.06 
 820.342,      7.57 
 820.647,     -5.89 
 820.953,    -93.42 
 821.258,     32.26 
 821.564,     56.95 
 821.869,     47.97 
 822.174,     47.97 
 822.479,     25.53 
 822.784,    -35.07 
 823.089,    -84.44 
 823.394,      7.57 
 823.699,    -44.05 
 824.004,    -37.31 
 824.309,    -57.51 
 824.614,     14.31 
 824.919,     -1.40 
 825.223,    -57.51 
 825.528,     12.06 
 825.833,    -17.11 
 826.137,     70.42 
 826.442,    -12.62 
 826.746,    -91.18 
 827.050,    -68.73 
 827.355,     -5.89 
 827.659,    -21.60 
 827.963,    -12.62 
 828.267,      0.84 
 828.571,    -62.00 
 828.875,      5.33 
 829.179,    -64.24 
 829.483,     16.55 
 829.787,      0.84 
 830.091,     -5.89 
 830.395,    -23.85 
 830.699,     25.53 
 831.002,    -26.09 
 831.306,    -10.38 
 831.609,     32.26 
 831.913,     50.22 
 832.216,    -39.56 
 832.520,    -23.85 
 832.823,     14.31 
 833.126,    -44.05 
 833.430,    -48.53 
 833.733,      7.57 
 834.036,    -46.29 
 834.339,    -30.58 
 834.642,    -14.87 
 834.945,      5.33 
 835.248,    -12.62 
 835.551,    -48.53 
 835.854,      7.57 
 836.156,    -32.82 
 836.459,    -88.93 
 836.762,    -28.33 
 837.064,    -32.82 
 837.367,     43.48 
 837.669,     74.91 
 837.972,     90.62 
 838.274,     72.66 
 838.576,     16.55 
 838.879,      0.84 
 839.181,     32.26 
 839.483,     54.71 
 839.785,     12.06 
 840.087,    -53.02 
 840.389,    -88.93 
 840.691,     45.73 
 840.993,    -26.09 
 841.295,     -3.65 
 841.597,    -88.93 
 841.898,      5.33 
 842.200,    -14.87 
 842.502,    -44.05 
 842.803,     -1.40 
 843.105,     -3.65 
 843.406,     50.22 
 843.708,      5.33 
 844.009,     23.29 
 844.310,    -57.51 
 844.611,     -3.65 
 844.913,    -10.38 
 845.214,     72.66 
 845.515,    139.99 
 845.816,     36.75 
 846.117,     18.80 
 846.418,     83.88 
 846.719,     61.44 
 847.019,    -26.09 
 847.320,     23.29 
 847.621,     -8.14 
 847.921,    -55.27 
 848.222,    -64.24 
 848.523,    -28.33 
 848.823,    -62.00 
 849.123,     21.04 
 849.424,     12.06 
 849.724,    -30.58 
 850.024,     16.55 
 850.325,      0.84 
 850.625,     25.53 
 850.925,     32.26 
 851.225,    -32.82 
 851.525,    -14.87 
 851.825,    -37.31 
 852.125,     27.77 
 852.425,     -1.40 
 852.724,     -3.65 
 853.024,     45.73 
 853.324,    -32.82 
 853.623,   -111.38 
 853.923,    -10.38 
 854.222,    -66.49 
 854.522,    -23.85 
 854.821,    -14.87 
 855.120,      0.84 
 855.420,    -12.62 
 855.719,   -100.15 
 856.018,    -41.80 
 856.317,     25.53 
 856.616,     45.73 
 856.915,      7.57 
 857.214,     88.37 
 857.513,     43.48 
 857.812,     70.42 
 858.111,     27.77 
 858.409,    -35.07 
 858.708,    -21.60 
 859.007,      0.84 
 859.305,    -14.87 
 859.604,      3.09 
 859.902,    -21.60 
 860.201,     -8.14 
 860.499,    -14.87 
 860.797,     -5.89 
 861.096,    -35.07 
 861.394,    -32.82 
 861.692,     18.80 
 861.990,    -46.29 
 862.288,    -28.33 
 862.586,    -39.56 
 862.884,     65.93 
 863.182,    -14.87 
 863.479,     45.73 
 863.777,      3.09 
 864.075,    -26.09 
 864.373,    -12.62 
 864.670,    -30.58 
 864.968,    -28.33 
 865.265,    -62.00 
 865.563,    -30.58 
 865.860,     45.73 
 866.157,     30.02 
 866.454,     27.77 
 866.752,    -86.69 
 867.049,     41.24 
 867.346,    -91.18 
 867.643,    -17.11 
 867.940,     16.55 
 868.237,     68.17 
 868.534,     -1.40 
 868.830,     27.77 
 869.127,     18.80 
 869.424,    -55.27 
 869.720,    -19.36 
 870.017,    -23.85 
 870.314,    -35.07 
 870.610,     -3.65 
 870.906,     14.31 
 871.203,     27.77 
 871.499,    -14.87 
 871.795,     54.71 
 872.092,    -35.07 
 872.388,     27.77 
 872.684,    -26.09 
 872.980,     68.17 
 873.276,     -3.65 
 873.572,    -41.80 
 873.868,     65.93 
 874.163,    -62.00 
 874.459,     25.53 
 874.755,    -26.09 
 875.051,    -32.82 
 875.346,     -3.65 
 875.642,     59.19 
 875.937,     39.00 
 876.233,     92.86 
 876.528,     47.97 
 876.823,    -39.56 
 877.119,     21.04 
 877.414,     23.29 
 877.709,     61.44 
 878.004,     36.75 
 878.299,    -32.82 
 878.594,    -84.44 
 878.889,     -3.65 
 879.184,    -14.87 
 879.479,    -66.49 
 879.773,     14.31 
 880.068,     63.68 
 880.363,      3.09 
 880.657,    -35.07 
 880.952,      5.33 
 881.246,    -14.87 
