Wavelength,Intensity
 177.185,    -31.00 
 177.571,    -31.00 
 177.957,    -31.00 
 178.343,    -24.27 
 178.729,    -93.84 
 179.115,    -66.91 
 179.500,    -31.00 
 179.886,      4.91 
 180.272,     36.33 
 180.658,    -13.05 
 181.043,     54.29 
 181.429,     25.11 
 181.815,     29.60 
 182.200,     -4.07 
 182.586,      9.40 
 182.972,     31.84 
 183.357,     49.80 
 183.743,     22.86 
 184.128,    -15.29 
 184.513,     18.38 
 184.899,    -44.47 
 185.284,     38.57 
 185.670,     31.84 
 186.055,      4.91 
 186.440,    -64.67 
 186.825,    -13.05 
 187.210,      2.67 
 187.596,    -39.98 
 187.981,    -13.05 
 188.366,    -10.80 
 188.751,     63.26 
 189.136,    -13.05 
 189.521,    -35.49 
 189.906,    -15.29 
 190.291,     40.82 
 190.676,     25.11 
 191.060,     63.26 
 191.445,     49.80 
 191.830,      2.67 
 192.215,     16.13 
 192.599,    -53.44 
 192.984,     38.57 
 193.369,      2.67 
 193.753,     -6.31 
 194.138,    -39.98 
 194.522,    -33.24 
 194.907,    -19.78 
 195.291,     31.84 
 195.676,    -10.80 
 196.060,     13.89 
 196.445,     27.35 
 196.829,     47.55 
 197.213,    -13.05 
 197.597,     -6.31 
 197.982,     16.13 
 198.366,     36.33 
 198.750,    -15.29 
 199.134,     -6.31 
 199.518,    -15.29 
 199.902,    -46.71 
 200.286,    -53.44 
 200.670,    -46.71 
 201.054,    -28.76 
 201.438,    -39.98 
 201.822,     67.75 
 202.206,     -6.31 
 202.590,    -10.80 
 202.973,    -28.76 
 203.357,     49.80 
 203.741,    -66.91 
 204.124,    -33.24 
 204.508,    -48.95 
 204.892,     90.19 
 205.275,    -53.44 
 205.659,    -62.42 
 206.042,     13.89 
 206.426,     45.31 
 206.809,    -28.76 
 207.193,    -10.80 
 207.576,     -8.56 
 207.959,      0.42 
 208.342,    -17.53 
 208.726,    -19.78 
 209.109,     -6.31 
 209.492,    -17.53 
 209.875,    -62.42 
 210.258,    -33.24 
 210.641,     -4.07 
 211.025,    -22.02 
 211.408,     -1.82 
 211.790,     22.86 
 212.173,    -66.91 
 212.556,    -57.93 
 212.939,    -10.80 
 213.322,    -46.71 
 213.705,    -53.44 
 214.088,    -26.51 
 214.470,     13.89 
 214.853,     38.57 
 215.236,      2.67 
 215.618,     90.19 
 216.001,     -8.56 
 216.383,     25.11 
 216.766,    -19.78 
 217.148,     11.64 
 217.531,     54.29 
 217.913,     18.38 
 218.296,     -1.82 
 218.678,      4.91 
 219.060,    -17.53 
 219.443,      4.91 
 219.825,     29.60 
 220.207,    -19.78 
 220.589,     40.82 
 220.971,      4.91 
 221.353,      9.40 
 221.735,     22.86 
 222.118,     11.64 
 222.500,    -33.24 
 222.881,     36.33 
 223.263,     25.11 
 223.645,    -60.18 
 224.027,    -48.95 
 224.409,     -6.31 
 224.791,    -42.22 
 225.172,    -31.00 
 225.554,    -42.22 
 225.936,    -35.49 
 226.317,    -22.02 
 226.699,    -15.29 
 227.081,    -35.49 
 227.462,     -4.07 
 227.844,     -4.07 
 228.225,     20.62 
 228.607,    -42.22 
 228.988,     34.09 
 229.369,      2.67 
 229.751,    -22.02 
 230.132,      0.42 
 230.513,    -66.91 
 230.894,     18.38 
 231.276,     -8.56 
 231.657,     36.33 
 232.038,    -31.00 
 232.419,     34.09 
 232.800,     63.26 
 233.181,     25.11 
 233.562,    -48.95 
 233.943,     54.29 
 234.324,    -48.95 
 234.705,     11.64 
 235.085,     -8.56 
 235.466,      4.91 
 235.847,      7.15 
 236.228,     -6.31 
 236.608,    -51.20 
 236.989,    -39.98 
 237.370,      7.15 
 237.750,     43.06 
 238.131,    -42.22 
 238.511,     20.62 
 238.892,   -123.02 
 239.272,      0.42 
 239.653,     40.82 
 240.033,     34.09 
 240.413,    -26.51 
 240.794,     34.09 
 241.174,     13.89 
 241.554,     34.09 
 241.934,     20.62 
 242.314,     29.60 
 242.694,    -17.53 
 243.075,    -10.80 
 243.455,    -39.98 
 243.835,      0.42 
 244.215,     27.35 
 244.595,     -8.56 
 244.974,    -22.02 
 245.354,    -80.38 
 245.734,     -1.82 
 246.114,     18.38 
 246.494,      9.40 
 246.873,    -15.29 
 247.253,     -8.56 
 247.633,    -26.51 
 248.012,     11.64 
 248.392,     25.11 
 248.771,    -60.18 
 249.151,    -44.47 
 249.530,     18.38 
 249.910,     -4.07 
 250.289,     18.38 
 250.669,    -44.47 
 251.048,     49.80 
 251.427,    -35.49 
 251.806,    -44.47 
 252.186,     29.60 
 252.565,     16.13 
 252.944,     29.60 
 253.323,    -57.93 
 253.702,     11.64 
 254.081,    -15.29 
 254.460,     20.62 
 254.839,      9.40 
 255.218,     -8.56 
 255.597,    -64.67 
 255.976,    -31.00 
 256.355,     -4.07 
 256.733,    -24.27 
 257.112,     85.71 
 257.491,    -31.00 
 257.870,     -6.31 
 258.248,      2.67 
 258.627,     36.33 
 259.005,    -13.05 
 259.384,     13.89 
 259.762,     29.60 
 260.141,     -1.82 
 260.519,    -37.73 
 260.898,     25.11 
 261.276,      0.42 
 261.654,    -31.00 
 262.033,    -51.20 
 262.411,    -33.24 
 262.789,    -48.95 
 263.167,    -13.05 
 263.545,    -22.02 
 263.924,     20.62 
 264.302,    -13.05 
 264.680,     65.51 
 265.058,     63.26 
 265.436,     -1.82 
 265.813,     90.19 
 266.191,    -42.22 
 266.569,    -17.53 
 266.947,      9.40 
 267.325,      7.15 
 267.702,     18.38 
 268.080,    -42.22 
 268.458,    -13.05 
 268.835,     25.11 
 269.213,    -24.27 
 269.591,     16.13 
 269.968,     43.06 
 270.346,     36.33 
 270.723,     22.86 
 271.100,     29.60 
 271.478,    -42.22 
 271.855,     -8.56 
 272.232,     27.35 
 272.610,      9.40 
 272.987,    -24.27 
 273.364,     36.33 
 273.741,     -1.82 
 274.118,     13.89 
 274.495,     61.02 
 274.872,     -8.56 
 275.249,    -15.29 
 275.626,    -10.80 
 276.003,    -60.18 
 276.380,     25.11 
 276.757,     27.35 
 277.134,    -15.29 
 277.511,     27.35 
 277.887,    -37.73 
 278.264,      2.67 
 278.641,    -89.35 
 279.018,     -6.31 
 279.394,    -24.27 
 279.771,    -53.44 
 280.147,    -33.24 
 280.524,     22.86 
 280.900,    -31.00 
 281.277,     31.84 
 281.653,    -24.27 
 282.029,     29.60 
 282.406,    -75.89 
 282.782,    -31.00 
 283.158,    -48.95 
 283.534,     18.38 
 283.910,      2.67 
 284.287,    -48.95 
 284.663,      0.42 
 285.039,      0.42 
 285.415,    -17.53 
 285.791,   -107.31 
 286.167,    -66.91 
 286.542,     20.62 
 286.918,     18.38 
 287.294,      4.91 
 287.670,     38.57 
 288.046,    -31.00 
 288.421,     49.80 
 288.797,     40.82 
 289.173,     76.73 
 289.548,     34.09 
 289.924,     92.44 
 290.299,     49.80 
 290.675,     36.33 
 291.050,     31.84 
 291.426,     16.13 
 291.801,    -15.29 
 292.177,     -1.82 
 292.552,     -6.31 
 292.927,     36.33 
 293.302,    -44.47 
 293.678,     27.35 
 294.053,    -26.51 
 294.428,    -66.91 
 294.803,     34.09 
 295.178,     29.60 
 295.553,    -35.49 
 295.928,     54.29 
 296.303,      4.91 
 296.678,     -4.07 
 297.053,    -37.73 
 297.427,      0.42 
 297.802,    -31.00 
 298.177,   -120.77 
 298.552,    -39.98 
 298.926,     52.04 
 299.301,     40.82 
 299.676,    -57.93 
 300.050,     25.11 
 300.425,    -48.95 
 300.799,    -39.98 
 301.174,    -66.91 
 301.548,    -71.40 
 301.922,      2.67 
 302.297,     36.33 
 302.671,    -33.24 
 303.045,     -1.82 
 303.420,    -22.02 
 303.794,    -33.24 
 304.168,    -33.24 
 304.542,    -19.78 
 304.916,    -10.80 
 305.290,    -51.20 
 305.664,    -15.29 
 306.038,     16.13 
 306.412,     25.11 
 306.786,    -22.02 
 307.160,     18.38 
 307.534,   -100.57 
 307.907,     -6.31 
 308.281,    -37.73 
 308.655,     18.38 
 309.028,    -17.53 
 309.402,    -98.33 
 309.776,    -26.51 
 310.149,    -44.47 
 310.523,    -17.53 
 310.896,     27.35 
 311.270,      7.15 
 311.643,      0.42 
 312.016,     99.17 
 312.390,    -24.27 
 312.763,      9.40 
 313.136,     56.53 
 313.509,    -19.78 
 313.883,      0.42 
 314.256,     22.86 
 314.629,     11.64 
 315.002,     11.64 
 315.375,     18.38 
 315.748,     25.11 
 316.121,     63.26 
 316.494,    -28.76 
 316.867,     -6.31 
 317.240,     20.62 
 317.612,     22.86 
 317.985,      4.91 
 318.358,      7.15 
 318.730,     40.82 
 319.103,    -17.53 
 319.476,    -37.73 
 319.848,     27.35 
 320.221,     -4.07 
 320.593,     18.38 
 320.966,      9.40 
 321.338,     -4.07 
 321.711,    -24.27 
 322.083,    -98.33 
 322.455,      0.42 
 322.828,    -44.47 
 323.200,     31.84 
 323.572,    -17.53 
 323.944,    -71.40 
 324.316,    -13.05 
 324.688,     40.82 
 325.060,     25.11 
 325.432,     49.80 
 325.804,     11.64 
 326.176,    -62.42 
 326.548,    -31.00 
 326.920,     45.31 
 327.292,     54.29 
 327.664,     47.55 
 328.035,     22.86 
 328.407,     -4.07 
 328.779,    -15.29 
 329.150,      9.40 
 329.522,    -22.02 
 329.893,     -6.31 
 330.265,    -19.78 
 330.636,    -31.00 
 331.008,     -1.82 
 331.379,    -26.51 
 331.750,    -22.02 
 332.122,    -37.73 
 332.493,      0.42 
 332.864,    -35.49 
 333.236,      4.91 
 333.607,      4.91 
 333.978,     16.13 
 334.349,     29.60 
 334.720,     20.62 
 335.091,     22.86 
 335.462,    -82.62 
 335.833,    -10.80 
 336.204,    -31.00 
 336.575,    -13.05 
 336.945,     54.29 
 337.316,     49.80 
 337.687,     85.71 
 338.058,     34.09 
 338.428,    112.64 
 338.799,    -37.73 
 339.169,      4.91 
 339.540,      4.91 
 339.911,      2.67 
 340.281,     11.64 
 340.651,    -22.02 
 341.022,     29.60 
 341.392,    -60.18 
 341.762,      4.91 
 342.133,     61.02 
 342.503,      4.91 
 342.873,     45.31 
 343.243,    130.59 
 343.613,     43.06 
 343.984,     25.11 
 344.354,     16.13 
 344.724,     36.33 
 345.094,     22.86 
 345.464,     81.22 
 345.833,    110.39 
 346.203,    126.10 
 346.573,    137.33 
 346.943,    126.10 
 347.313,     90.19 
 347.682,    159.77 
 348.052,    114.88 
 348.422,     74.48 
 348.791,    123.86 
 349.161,     11.64 
 349.530,    -28.76 
 349.900,    -48.95 
 350.269,    -13.05 
 350.638,      7.15 
 351.008,     56.53 
 351.377,     43.06 
 351.746,     65.51 
 352.116,      2.67 
 352.485,     52.04 
 352.854,    103.66 
 353.223,    121.62 
 353.592,     63.26 
 353.961,     13.89 
 354.330,      7.15 
 354.699,     40.82 
 355.068,     -1.82 
 355.437,    -28.76 
 355.806,    -44.47 
 356.175,    -62.42 
 356.543,     -8.56 
 356.912,      4.91 
 357.281,     27.35 
 357.650,      4.91 
 358.018,     -8.56 
 358.387,    -39.98 
 358.755,    -17.53 
 359.124,    -24.27 
 359.492,     56.53 
 359.861,     56.53 
 360.229,    126.10 
 360.597,    247.30 
 360.966,    200.17 
 361.334,     96.93 
 361.702,     58.77 
 362.070,      9.40 
 362.438,     49.80 
 362.807,    -48.95 
 363.175,     -8.56 
 363.543,     -6.31 
 363.911,     27.35 
 364.279,     45.31 
 364.646,     40.82 
 365.014,     43.06 
 365.382,     -6.31 
 365.750,      7.15 
 366.118,    -53.44 
 366.485,     22.86 
 366.853,     -6.31 
 367.221,     13.89 
 367.588,     -8.56 
 367.956,    -53.44 
 368.323,     45.31 
 368.691,     40.82 
 369.058,    -73.64 
 369.426,     63.26 
 369.793,      2.67 
 370.160,    -57.93 
 370.528,    -13.05 
 370.895,     11.64 
 371.262,      2.67 
 371.629,      7.15 
 371.996,     11.64 
 372.363,     54.29 
 372.730,     22.86 
 373.097,     36.33 
 373.464,    -28.76 
 373.831,    -13.05 
 374.198,    -37.73 
 374.565,    -22.02 
 374.932,    -64.67 
 375.299,    -13.05 
 375.665,    -44.47 
 376.032,     36.33 
 376.399,     49.80 
 376.765,    -24.27 
 377.132,    -19.78 
 377.498,    -42.22 
 377.865,    -33.24 
 378.231,    -17.53 
 378.598,    -26.51 
 378.964,     58.77 
 379.331,      0.42 
 379.697,    -17.53 
 380.063,    -82.62 
 380.429,    -39.98 
 380.795,    -33.24 
 381.162,     16.13 
 381.528,     94.68 
 381.894,    -57.93 
 382.260,     -6.31 
 382.626,     38.57 
 382.992,    -35.49 
 383.358,    -10.80 
 383.723,    -24.27 
 384.089,     49.80 
 384.455,    -26.51 
 384.821,      2.67 
 385.186,     11.64 
 385.552,     47.55 
 385.918,      2.67 
 386.283,     63.26 
 386.649,     47.55 
 387.014,    -53.44 
 387.380,    -26.51 
 387.745,      0.42 
 388.111,     18.38 
 388.476,    -53.44 
 388.841,     27.35 
 389.206,     25.11 
 389.572,    -93.84 
 389.937,    -46.71 
 390.302,     -1.82 
 390.667,     -1.82 
 391.032,     16.13 
 391.397,    -13.05 
 391.762,    -35.49 
 392.127,    -57.93 
 392.492,    -48.95 
 392.857,     36.33 
 393.222,    -10.80 
 393.587,    -48.95 
 393.951,    -24.27 
 394.316,     22.86 
 394.681,    -39.98 
 395.045,     31.84 
 395.410,      0.42 
 395.774,     18.38 
 396.139,      2.67 
 396.503,    -60.18 
 396.868,     -4.07 
 397.232,    -22.02 
 397.596,    -64.67 
 397.961,     47.55 
 398.325,    -13.05 
 398.689,    -22.02 
 399.053,      7.15 
 399.418,      9.40 
 399.782,    -15.29 
 400.146,     16.13 
 400.510,      4.91 
 400.874,     27.35 
 401.238,     -8.56 
 401.602,    -13.05 
 401.965,    -39.98 
 402.329,     29.60 
 402.693,    -48.95 
 403.057,     -1.82 
 403.420,    -33.24 
 403.784,    -13.05 
 404.148,    -42.22 
 404.511,     40.82 
 404.875,     20.62 
 405.238,    -24.27 
 405.602,     25.11 
 405.965,     49.80 
 406.329,     18.38 
 406.692,     18.38 
 407.055,     11.64 
 407.418,     29.60 
 407.782,     72.24 
 408.145,    -22.02 
 408.508,     38.57 
 408.871,    -53.44 
 409.234,      4.91 
 409.597,    -39.98 
 409.960,    -13.05 
 410.323,     58.77 
 410.686,    -35.49 
 411.049,     43.06 
 411.412,      4.91 
 411.774,    -42.22 
 412.137,    -28.76 
 412.500,    -35.49 
 412.862,    -17.53 
 413.225,     27.35 
 413.588,      4.91 
 413.950,     38.57 
 414.313,     85.71 
 414.675,    -26.51 
 415.037,     13.89 
 415.400,    -10.80 
 415.762,    -15.29 
 416.124,    -39.98 
 416.487,    -53.44 
 416.849,     18.38 
 417.211,    -28.76 
 417.573,     -6.31 
 417.935,     18.38 
 418.297,    -37.73 
 418.659,    -84.86 
 419.021,    -44.47 
 419.383,    -13.05 
 419.745,      2.67 
 420.107,    -42.22 
 420.469,    -37.73 
 420.830,     49.80 
 421.192,    -37.73 
 421.554,    -17.53 
 421.915,    -13.05 
 422.277,     -4.07 
 422.638,    -57.93 
 423.000,      7.15 
 423.361,     11.64 
 423.723,     54.29 
 424.084,    -53.44 
 424.446,    -53.44 
 424.807,    -78.13 
 425.168,    -44.47 
 425.529,     58.77 
 425.891,     -1.82 
 426.252,     -8.56 
 426.613,     34.09 
 426.974,      9.40 
 427.335,    -19.78 
 427.696,     -1.82 
 428.057,      7.15 
 428.418,    -28.76 
 428.778,     76.73 
 429.139,     31.84 
 429.500,     25.11 
 429.861,     63.26 
 430.221,     47.55 
 430.582,     31.84 
 430.943,     49.80 
 431.303,    -17.53 
 431.664,    -24.27 
 432.024,    -48.95 
 432.385,    -10.80 
 432.745,     27.35 
 433.105,     -4.07 
 433.466,    -44.47 
 433.826,    -24.27 
 434.186,    -35.49 
 434.546,     22.86 
 434.907,     -1.82 
 435.267,      0.42 
 435.627,     54.29 
 435.987,     13.89 
 436.347,     13.89 
 436.707,    -35.49 
 437.067,     -1.82 
 437.427,     54.29 
 437.786,     11.64 
 438.146,     -1.82 
 438.506,      2.67 
 438.866,    -51.20 
 439.225,     29.60 
 439.585,     25.11 
 439.944,    -15.29 
 440.304,    -48.95 
 440.663,    -46.71 
 441.023,    -13.05 
 441.382,     -4.07 
 441.742,    -69.15 
 442.101,     -4.07 
 442.460,     27.35 
 442.820,      2.67 
 443.179,     58.77 
 443.538,      0.42 
 443.897,    -71.40 
 444.256,    -75.89 
 444.615,     -6.31 
 444.974,     22.86 
 445.333,    -42.22 
 445.692,    -13.05 
 446.051,     -6.31 
 446.410,     36.33 
 446.768,    -13.05 
 447.127,     -1.82 
 447.486,    -37.73 
 447.845,    -64.67 
 448.203,     36.33 
 448.562,    -28.76 
 448.920,      4.91 
 449.279,    -24.27 
 449.637,    -26.51 
 449.996,     13.89 
 450.354,    -96.09 
 450.712,    -13.05 
 451.071,    -22.02 
 451.429,     18.38 
 451.787,    -37.73 
 452.145,     72.24 
 452.503,    -28.76 
 452.861,     56.53 
 453.219,      2.67 
 453.577,     -8.56 
 453.935,      0.42 
 454.293,    -84.86 
 454.651,     18.38 
 455.009,     11.64 
 455.367,    -15.29 
 455.725,     22.86 
 456.082,    -22.02 
 456.440,     49.80 
 456.798,     47.55 
 457.155,     -6.31 
 457.513,    -98.33 
 457.870,     22.86 
 458.228,    -10.80 
 458.585,    -17.53 
 458.942,    -17.53 
 459.300,    -17.53 
 459.657,    -17.53 
 460.014,    -57.93 
 460.371,     38.57 
 460.729,    -31.00 
 461.086,    -28.76 
 461.443,     22.86 
 461.800,    -28.76 
 462.157,     -8.56 
 462.514,     29.60 
 462.871,     56.53 
 463.227,     -8.56 
 463.584,     -8.56 
 463.941,     49.80 
 464.298,    -66.91 
 464.655,     36.33 
 465.011,     31.84 
 465.368,    105.91 
 465.724,     90.19 
 466.081,     63.26 
 466.437,     74.48 
 466.794,     63.26 
 467.150,     11.64 
 467.507,     22.86 
 467.863,     -4.07 
 468.219,      7.15 
 468.575,    -51.20 
 468.932,      0.42 
 469.288,      4.91 
 469.644,    -33.24 
 470.000,     47.55 
 470.356,    -42.22 
 470.712,     13.89 
 471.068,     -4.07 
 471.424,     11.64 
 471.780,     40.82 
 472.135,     -4.07 
 472.491,      2.67 
 472.847,    -89.35 
 473.203,     -6.31 
 473.558,     47.55 
 473.914,    -33.24 
 474.269,     27.35 
 474.625,     11.64 
 474.980,     31.84 
 475.336,     -1.82 
 475.691,     72.24 
 476.046,     54.29 
 476.402,     70.00 
 476.757,    -62.42 
 477.112,     22.86 
 477.467,    -44.47 
 477.823,    -44.47 
 478.178,    -26.51 
 478.533,    -26.51 
 478.888,     31.84 
 479.243,    -35.49 
 479.598,    -15.29 
 479.952,    -51.20 
 480.307,    -17.53 
 480.662,    -37.73 
 481.017,     27.35 
 481.372,    -13.05 
 481.726,    -13.05 
 482.081,     11.64 
 482.435,    -26.51 
 482.790,     -4.07 
 483.144,     -1.82 
 483.499,     13.89 
 483.853,     18.38 
 484.208,    -15.29 
 484.562,    -71.40 
 484.916,    -64.67 
 485.270,     43.06 
 485.625,     94.68 
 485.979,      4.91 
 486.333,    -26.51 
 486.687,     40.82 
 487.041,     18.38 
 487.395,      7.15 
 487.749,     18.38 
 488.103,     78.97 
 488.457,     22.86 
 488.810,    -31.00 
 489.164,    -15.29 
 489.518,    -10.80 
 489.872,    -19.78 
 490.225,      4.91 
 490.579,     56.53 
 490.932,    -53.44 
 491.286,     16.13 
 491.639,    -75.89 
 491.993,     43.06 
 492.346,     16.13 
 492.700,     25.11 
 493.053,     27.35 
 493.406,    -10.80 
 493.759,    -33.24 
 494.112,    -22.02 
 494.466,     29.60 
 494.819,      4.91 
 495.172,     70.00 
 495.525,    -17.53 
 495.878,    -17.53 
 496.231,      4.91 
 496.583,    -51.20 
 496.936,      7.15 
 497.289,     54.29 
 497.642,     54.29 
 497.994,    -22.02 
 498.347,      4.91 
 498.700,    -28.76 
 499.052,     72.24 
 499.405,     22.86 
 499.757,     70.00 
 500.110,     -4.07 
 500.462,    -28.76 
 500.814,    -26.51 
 501.167,      9.40 
 501.519,    -24.27 
 501.871,    -10.80 
 502.223,    -48.95 
 502.575,     20.62 
 502.928,     11.64 
 503.280,     45.31 
 503.632,    -10.80 
 503.984,     27.35 
 504.335,      7.15 
 504.687,     67.75 
 505.039,    103.66 
 505.391,     76.73 
 505.743,    -46.71 
 506.094,     31.84 
 506.446,    -48.95 
 506.798,    -31.00 
 507.149,    -37.73 
 507.501,     -6.31 
 507.852,     31.84 
 508.204,     18.38 
 508.555,     40.82 
 508.906,      9.40 
 509.258,     54.29 
 509.609,     76.73 
 509.960,    -19.78 
 510.311,     40.82 
 510.663,     -6.31 
 511.014,     56.53 
 511.365,    -10.80 
 511.716,     31.84 
 512.067,    -15.29 
 512.418,     47.55 
 512.768,    227.10 
 513.119,    126.10 
 513.470,      9.40 
 513.821,    -13.05 
 514.171,    -19.78 
 514.522,    -62.42 
 514.873,     -4.07 
 515.223,     61.02 
 515.574,     -1.82 
 515.924,     81.22 
 516.275,     18.38 
 516.625,      0.42 
 516.975,     22.86 
 517.326,     -4.07 
 517.676,    -80.38 
 518.026,    -24.27 
 518.376,     29.60 
 518.727,    -53.44 
 519.077,     18.38 
 519.427,     63.26 
 519.777,     49.80 
 520.127,     63.26 
 520.477,     81.22 
 520.826,     52.04 
 521.176,     27.35 
 521.526,    110.39 
 521.876,     29.60 
 522.225,     72.24 
 522.575,     49.80 
 522.925,    -24.27 
 523.274,     -6.31 
 523.624,     18.38 
 523.973,     38.57 
 524.323,     22.86 
 524.672,     16.13 
 525.021,     13.89 
 525.371,     -8.56 
 525.720,     18.38 
 526.069,    -57.93 
 526.418,      0.42 
 526.767,      7.15 
 527.117,    -35.49 
 527.466,      2.67 
 527.815,    -19.78 
 528.164,     25.11 
 528.512,     11.64 
 528.861,     74.48 
 529.210,     65.51 
 529.559,     78.97 
 529.908,     -4.07 
 530.256,    114.88 
 530.605,    -31.00 
 530.954,    -51.20 
 531.302,     92.44 
 531.651,     49.80 
 531.999,    -39.98 
 532.347,     13.89 
 532.696,     20.62 
 533.044,     36.33 
 533.392,      4.91 
 533.741,    135.08 
 534.089,    316.87 
 534.437,    393.18 
 534.785,    263.01 
 535.133,    364.01 
 535.481,    473.98 
 535.829,    202.41 
 536.177,      0.42 
 536.525,     36.33 
 536.873,      0.42 
 537.221,    -15.29 
 537.568,      4.91 
 537.916,    -48.95 
 538.264,     13.89 
 538.611,     38.57 
 538.959,    -26.51 
 539.307,    -46.71 
 539.654,    -35.49 
 540.001,     -8.56 
 540.349,    -26.51 
 540.696,    177.72 
 541.044,    294.43 
 541.391,    628.84 
 541.738,    240.57 
 542.085,     61.02 
 542.432,     83.46 
 542.779,     70.00 
 543.126,    108.15 
 543.473,     45.31 
 543.820,    -26.51 
 544.167,     54.29 
 544.514,    -10.80 
 544.861,     40.82 
 545.208,     18.38 
 545.555,    -46.71 
 545.901,    -35.49 
 546.248,     67.75 
 546.595,    -17.53 
 546.941,    -31.00 
 547.288,     27.35 
 547.634,    -78.13 
 547.980,    -39.98 
 548.327,    -31.00 
 548.673,     25.11 
 549.019,    -51.20 
 549.366,    -24.27 
 549.712,      4.91 
 550.058,     43.06 
 550.404,     -6.31 
 550.750,     -8.56 
 551.096,    -17.53 
 551.442,     31.84 
 551.788,      9.40 
 552.134,     -6.31 
 552.480,    -84.86 
 552.826,     36.33 
 553.171,    -62.42 
 553.517,      0.42 
 553.863,    -31.00 
 554.208,     45.31 
 554.554,     38.57 
 554.900,     63.26 
 555.245,      0.42 
 555.590,     27.35 
 555.936,    -33.24 
 556.281,    -19.78 
 556.626,     -1.82 
 556.972,     52.04 
 557.317,     54.29 
 557.662,     81.22 
 558.007,    -42.22 
 558.352,     18.38 
 558.697,     11.64 
 559.042,    -33.24 
 559.387,    -15.29 
 559.732,      9.40 
 560.077,    -26.51 
 560.422,     25.11 
 560.767,     54.29 
 561.111,     45.31 
 561.456,     -4.07 
 561.801,     18.38 
 562.145,    -28.76 
 562.490,    -35.49 
 562.834,    -55.69 
 563.179,    -44.47 
 563.523,     18.38 
 563.867,     43.06 
 564.212,     70.00 
 564.556,     11.64 
 564.900,     22.86 
 565.244,     20.62 
 565.589,     27.35 
 565.933,     36.33 
 566.277,     90.19 
 566.621,     43.06 
 566.965,    126.10 
 567.309,     58.77 
 567.652,    -26.51 
 567.996,      0.42 
 568.340,     18.38 
 568.684,      0.42 
 569.027,    -28.76 
 569.371,     52.04 
 569.715,    -22.02 
 570.058,     94.68 
 570.402,     29.60 
 570.745,     58.77 
 571.089,     74.48 
 571.432,     16.13 
 571.775,    -35.49 
 572.119,     -1.82 
 572.462,      7.15 
 572.805,     18.38 
 573.148,     83.46 
 573.491,     99.17 
 573.834,     27.35 
 574.177,     54.29 
 574.520,     52.04 
 574.863,     43.06 
 575.206,      7.15 
 575.549,    184.46 
 575.892,    292.19 
 576.234,    229.34 
 576.577,     94.68 
 576.920,    242.81 
 577.262,    754.52 
 577.605,   1299.90 
 577.947,    664.75 
 578.290,    289.94 
 578.632,     90.19 
 578.975,     74.48 
 579.317,    -10.80 
 579.659,      7.15 
 580.001,     -8.56 
 580.344,     34.09 
 580.686,     99.17 
 581.028,     90.19 
 581.370,    258.52 
 581.712,    350.54 
 582.054,    126.10 
 582.396,    202.41 
 582.738,    440.31 
 583.079,    785.94 
 583.421,    561.51 
 583.763,    298.92 
 584.105,    153.04 
 584.446,    193.43 
 584.788,    220.37 
 585.129,    413.38 
 585.471,   1970.96 
 585.812,  11042.62 
 586.154,  29374.46 
 586.495,  38116.21 
 586.836,  12149.08 
 587.178,   4527.27 
 587.519,   1611.86 
 587.860,    680.46 
 588.201,    684.95 
 588.542,   2188.66 
 588.883,   7146.43 
 589.224,  15562.74 
 589.565,  10793.50 
 589.906,   3672.18 
 590.247,   1290.92 
 590.588,    599.66 
 590.929,    496.42 
 591.269,    714.12 
 591.610,    568.24 
 591.951,    397.67 
 592.291,    263.01 
 592.632,    204.66 
 592.972,    162.01 
 593.313,     92.44 
 593.653,    177.72 
 593.993,    227.10 
 594.334,    310.14 
 594.674,   1326.83 
 595.014,   7424.73 
 595.354,  20067.15 
 595.694,  26975.26 
 596.034,   8874.58 
 596.375,   3429.79 
 596.714,   1201.15 
 597.054,    503.16 
 597.394,    451.54 
 597.734,    709.64 
 598.074,   1984.43 
 598.414,   5122.03 
 598.753,   6623.50 
 599.093,   2489.40 
 599.433,   1050.78 
 599.772,    563.75 
 600.112,    361.76 
 600.451,    224.86 
 600.791,    155.28 
 601.130,    119.37 
 601.469,    153.04 
 601.809,     78.97 
 602.148,     90.19 
 602.487,     43.06 
 602.826,    170.99 
 603.165,    397.67 
 603.504,   2096.64 
 603.843,   5595.58 
 604.182,   7168.87 
 604.521,   2805.86 
 604.860,   1017.11 
 605.199,    453.78 
 605.538,    305.65 
 605.877,    188.95 
 606.215,    193.43 
 606.554,    170.99 
 606.892,    159.77 
 607.231,    296.67 
 607.570,    936.31 
 607.908,   6585.34 
 608.246,  18478.15 
 608.585,  25188.75 
 608.923,   9498.51 
 609.261,   3732.77 
 609.600,   1959.74 
 609.938,   4587.87 
 610.276,  17367.20 
 610.614,  34009.05 
 610.952,  21705.52 
 611.290,   7200.29 
 611.628,   2740.77 
 611.966,   1097.91 
 612.304,    489.69 
 612.641,    323.61 
 612.979,    364.01 
 613.317,    666.99 
 613.655,   1203.39 
 613.992,   1519.85 
 614.330,   1694.90 
 614.667,   9996.75 
 615.005,  34837.21 
 615.342,  55357.30 
 615.680,  31185.65 
 616.017,  11192.99 
 616.354,   4352.21 
 616.691,   3838.26 
 617.029,   9410.98 
 617.366,  17019.32 
 617.703,   9678.06 
 618.040,   3566.69 
 618.377,   1470.47 
 618.714,    761.26 
 619.051,    408.89 
 619.388,    271.99 
 619.725,    307.90 
 620.061,    233.83 
 620.398,    202.41 
 620.735,    135.08 
 621.071,    191.19 
 621.408,    153.04 
 621.745,    476.22 
 622.081,   3133.53 
 622.417,  11058.33 
 622.754,  18316.56 
 623.090,   9298.76 
 623.427,   3508.34 
 623.763,   1263.99 
 624.099,    521.11 
 624.435,    321.36 
 624.771,    184.46 
 625.107,    197.92 
 625.443,    209.15 
 625.779,    188.95 
 626.115,    256.28 
 626.451,    473.98 
 626.787,   1549.02 
 627.123,   9877.80 
 627.459,  25410.94 
 627.794,  27244.58 
 628.130,   9494.02 
 628.465,   3752.97 
 628.801,   1522.09 
 629.137,    658.02 
 629.472,    390.94 
 629.807,    377.47 
 630.143,    368.49 
 630.478,    545.80 
 630.813,   2496.14 
 631.149,   8452.64 
 631.484,  13361.03 
 631.819,   6744.69 
 632.154,   2799.12 
 632.489,   1252.77 
 632.824,    745.54 
 633.159,    687.19 
 633.494,   1813.86 
 633.829,  14629.09 
 634.164,  42259.27 
 634.498,  52830.16 
 634.833,  23707.48 
 635.168,   8647.90 
 635.502,   3533.03 
 635.837,   1423.34 
 636.171,    860.01 
 636.506,    570.49 
 636.840,    530.09 
 637.175,    505.40 
 637.509,    543.55 
 637.843,    613.13 
 638.177,   1133.82 
 638.512,   5368.90 
 638.846,  27971.75 
 639.180,  50976.33 
 639.514,  37905.24 
 639.848,  13690.95 
 640.182,   7914.00 
 640.516,  27134.60 
 640.850,  64336.94 
 641.183,  64336.94 
 641.517,  64336.94 
 641.851,  27581.23 
 642.184,  10820.43 
 642.518,   4529.52 
 642.852,   1944.03 
 643.185,   1039.55 
 643.519,    718.61 
 643.852,   1021.60 
 644.185,    426.85 
 644.519,    294.43 
 644.852,    260.77 
 645.185,    278.72 
 645.519,    278.72 
 645.852,    249.54 
 646.185,    119.37 
 646.518,    159.77 
 646.851,    121.62 
 647.184,    148.55 
 647.517,    215.88 
 647.849,    148.55 
 648.182,    117.13 
 648.515,    157.53 
 648.848,    197.92 
 649.180,    233.83 
 649.513,    260.77 
 649.846,    285.45 
 650.178,    583.95 
 650.511,    925.09 
 650.843,   6434.97 
 651.175,  35541.94 
 651.508,  56427.85 
 651.840,  42892.18 
 652.172,  15060.00 
 652.504,   6410.28 
 652.837,   2736.28 
 653.169,   1371.72 
 653.501,   3061.71 
 653.833,  12101.95 
 654.165,  20262.41 
 654.496,  12613.66 
 654.828,   4583.38 
 655.160,   1973.20 
 655.492,    902.65 
 655.824,    447.05 
 656.155,    321.36 
 656.487,    265.25 
 656.818,    245.05 
 657.150,    141.81 
 657.481,    130.59 
 657.813,    135.08 
 658.144,    101.42 
 658.475,     81.22 
 658.807,    117.13 
 659.138,    139.57 
 659.469,    236.08 
 659.800,    478.47 
 660.131,   3402.85 
 660.462,  13773.99 
 660.793,  20536.22 
 661.124,  11042.62 
 661.455,   4246.73 
 661.786,   1959.74 
 662.117,    857.76 
 662.448,    337.07 
 662.778,    182.21 
 663.109,    146.30 
 663.440,     67.75 
 663.770,    103.66 
 664.101,    150.79 
 664.431,    119.37 
 664.761,    153.04 
 665.092,     96.93 
 665.422,    188.95 
 665.752,    170.99 
 666.083,    164.26 
 666.413,    204.66 
 666.743,    213.63 
 667.073,    195.68 
 667.403,    330.34 
 667.733,    835.32 
 668.063,   7310.27 
 668.393,  28429.59 
 668.723,  37478.81 
 669.052,  19786.60 
 669.382,   7467.37 
 669.712,   3144.75 
 670.041,   1378.45 
 670.371,    689.44 
 670.700,    341.56 
 671.030,    328.10 
 671.359,    337.07 
 671.689,    900.40 
 672.018,   7236.20 
 672.347,  20217.52 
 672.677,  20183.85 
 673.006,   9267.34 
 673.335,   3723.80 
 673.664,   1641.04 
 673.993,    761.26 
 674.322,    368.49 
 674.651,    177.72 
 674.980,    200.17 
 675.309,    130.59 
 675.638,     74.48 
 675.966,     83.46 
 676.295,     47.55 
 676.624,     27.35 
 676.952,     90.19 
 677.281,     81.22 
 677.610,     54.29 
 677.938,     -1.82 
 678.266,     13.89 
 678.595,    -13.05 
 678.923,    -39.98 
 679.251,     81.22 
 679.580,     61.02 
 679.908,     34.09 
 680.236,     49.80 
 680.564,    -24.27 
 680.892,    -26.51 
 681.220,      4.91 
 681.548,     38.57 
 681.876,     -1.82 
 682.204,     90.19 
 682.531,     11.64 
 682.859,     -1.82 
 683.187,     31.84 
 683.514,     85.71 
 683.842,      0.42 
 684.170,     -6.31 
 684.497,    -15.29 
 684.825,    -75.89 
 685.152,     -1.82 
 685.479,     36.33 
 685.807,     25.11 
 686.134,     49.80 
 686.461,     40.82 
 686.788,    -26.51 
 687.115,      9.40 
 687.442,    -17.53 
 687.769,    -46.71 
 688.096,      0.42 
 688.423,    -66.91 
 688.750,     43.06 
 689.077,     22.86 
 689.404,    126.10 
 689.730,     72.24 
 690.057,     38.57 
 690.384,     56.53 
 690.710,     99.17 
 691.037,     81.22 
 691.363,    103.66 
 691.689,    126.10 
 692.016,    123.86 
 692.342,    179.97 
 692.668,    460.51 
 692.995,   2684.66 
 693.321,  17728.54 
 693.647,  31279.92 
 693.973,  20821.25 
 694.299,   8991.28 
 694.625,   3977.41 
 694.951,   1874.45 
 695.277,    864.50 
 695.603,    379.72 
 695.928,    301.16 
 696.254,    175.48 
 696.580,     83.46 
 696.905,    112.64 
 697.231,     78.97 
 697.557,     34.09 
 697.882,     61.02 
 698.207,     83.46 
 698.533,     72.24 
 698.858,    126.10 
 699.183,     70.00 
 699.509,    126.10 
 699.834,     61.02 
 700.159,    139.57 
 700.484,    175.48 
 700.809,    119.37 
 701.134,    132.84 
 701.459,    166.50 
 701.784,    182.21 
 702.109,    337.07 
 702.434,    673.73 
 702.758,   2163.97 
 703.083,   4617.05 
 703.408,  21918.74 
 703.732,  59226.55 
 704.057,  58753.00 
 704.381,  36747.15 
 704.706,  15374.21 
 705.030,   7139.70 
 705.354,   3380.41 
 705.679,   1499.65 
 706.003,    785.94 
 706.327,    727.59 
 706.651,    608.64 
 706.975,    415.63 
 707.299,    224.86 
 707.623,    157.53 
 707.947,    108.15 
 708.271,    128.35 
 708.595,    135.08 
 708.919,     94.68 
 709.243,     81.22 
 709.566,     56.53 
 709.890,     16.13 
 710.214,     43.06 
 710.537,     13.89 
 710.861,     29.60 
 711.184,     61.02 
 711.507,     81.22 
 711.831,     -8.56 
 712.154,     72.24 
 712.477,     63.26 
 712.801,     -1.82 
 713.124,     34.09 
 713.447,     36.33 
 713.770,     38.57 
 714.093,      7.15 
 714.416,     43.06 
 714.739,     47.55 
 715.061,     29.60 
 715.384,     76.73 
 715.707,     87.95 
 716.030,      7.15 
 716.352,     81.22 
 716.675,     16.13 
 716.998,     96.93 
 717.320,    431.34 
 717.642,   3230.04 
 717.965,   6100.56 
 718.287,   4217.55 
 718.610,   2267.21 
 718.932,   1028.33 
 719.254,    523.35 
 719.576,    276.48 
 719.898,     90.19 
 720.220,     70.00 
 720.542,     67.75 
 720.864,     49.80 
 721.186,     18.38 
 721.508,     74.48 
 721.830,    101.42 
 722.152,    108.15 
 722.473,     65.51 
 722.795,    103.66 
 723.116,    121.62 
 723.438,     96.93 
 723.760,    184.46 
 724.081,    411.14 
 724.402,   1679.19 
 724.724,  14314.88 
 725.045,  30732.30 
 725.366,  21615.75 
 725.687,  11394.98 
 726.009,   5056.94 
 726.330,   2446.76 
 726.651,   1205.64 
 726.972,    512.13 
 727.293,    224.86 
 727.614,    179.97 
 727.934,     40.82 
 728.255,      2.67 
 728.576,     78.97 
 728.897,    117.13 
 729.217,     56.53 
 729.538,     54.29 
 729.858,     56.53 
 730.179,     56.53 
 730.499,    -22.02 
 730.820,     22.86 
 731.140,    -26.51 
 731.460,     11.64 
 731.781,    -28.76 
 732.101,     13.89 
 732.421,     29.60 
 732.741,    -53.44 
 733.061,     18.38 
 733.381,    -46.71 
 733.701,    -17.53 
 734.021,      4.91 
 734.341,     -1.82 
 734.661,    -28.76 
 734.980,     54.29 
 735.300,     56.53 
 735.620,     18.38 
 735.939,    103.66 
 736.259,     29.60 
 736.578,    -53.44 
 736.898,     18.38 
 737.217,    -15.29 
 737.536,    -28.76 
 737.856,      7.15 
 738.175,     -1.82 
 738.494,      2.67 
 738.813,    -37.73 
 739.132,    -46.71 
 739.451,    -17.53 
 739.770,     -6.31 
 740.089,      7.15 
 740.408,      2.67 
 740.727,     74.48 
 741.046,      4.91 
 741.364,    -78.13 
 741.683,     18.38 
 742.002,     40.82 
 742.320,     25.11 
 742.639,     13.89 
 742.957,     56.53 
 743.276,    114.88 
 743.594,    220.37 
 743.912,   1694.90 
 744.231,   6654.92 
 744.549,   6096.07 
 744.867,   3488.14 
 745.185,   1764.48 
 745.503,    889.18 
 745.821,    359.52 
 746.139,    175.48 
 746.457,    101.42 
 746.775,    381.96 
 747.093,     74.48 
 747.410,     49.80 
 747.728,     81.22 
 748.046,     63.26 
 748.363,     18.38 
 748.681,    117.13 
 748.998,    613.13 
 749.316,   1322.34 
 749.633,    871.23 
 749.951,    516.62 
 750.268,    321.36 
 750.585,    215.88 
 750.902,    175.48 
 751.220,     56.53 
 751.537,     -6.31 
 751.854,    -35.49 
 752.171,     83.46 
 752.488,    -39.98 
 752.805,    -24.27 
 753.121,    110.39 
 753.438,    144.06 
 753.755,    723.10 
 754.072,   1030.58 
 754.388,    705.15 
 754.705,    853.27 
 755.021,    541.31 
 755.338,    285.45 
 755.654,    240.57 
 755.971,     99.17 
 756.287,    108.15 
 756.603,     85.71 
 756.919,     47.55 
 757.236,     54.29 
 757.552,      9.40 
 757.868,    -22.02 
 758.184,    -80.38 
 758.500,    -15.29 
 758.816,     29.60 
 759.132,     34.09 
 759.447,    -51.20 
 759.763,    -71.40 
 760.079,      4.91 
 760.395,    -15.29 
 760.710,     61.02 
 761.026,      9.40 
 761.341,     54.29 
 761.657,     27.35 
 761.972,      4.91 
 762.287,      4.91 
 762.603,     36.33 
 762.918,    -10.80 
 763.233,    -46.71 
 763.548,     -6.31 
 763.863,    -39.98 
 764.178,    -57.93 
 764.493,    -31.00 
 764.808,    -35.49 
 765.123,      7.15 
 765.438,    -15.29 
 765.753,     25.11 
 766.068,    -31.00 
 766.382,    -75.89 
 766.697,     11.64 
 767.011,    -57.93 
 767.326,    -13.05 
 767.640,    -10.80 
 767.955,    -39.98 
 768.269,    -64.67 
 768.584,     29.60 
 768.898,    -17.53 
 769.212,    -73.64 
 769.526,    -71.40 
 769.840,    -75.89 
 770.154,     11.64 
 770.468,    -48.95 
 770.782,     25.11 
 771.096,     -1.82 
 771.410,      7.15 
 771.724,    -71.40 
 772.038,    -33.24 
 772.351,    -22.02 
 772.665,    -42.22 
 772.979,     38.57 
 773.292,      0.42 
 773.606,     34.09 
 773.919,    -13.05 
 774.232,    -13.05 
 774.546,    -31.00 
 774.859,    -42.22 
 775.172,    -17.53 
 775.486,    -80.38 
 775.799,     -1.82 
 776.112,      9.40 
 776.425,      7.15 
 776.738,     52.04 
 777.051,    -66.91 
 777.364,     40.82 
 777.676,     83.46 
 777.989,     34.09 
 778.302,    -46.71 
 778.614,     81.22 
 778.927,     18.38 
 779.240,      9.40 
 779.552,    -48.95 
 779.865,    377.47 
 780.177,     49.80 
 780.489,    -33.24 
 780.802,    -31.00 
 781.114,     38.57 
 781.426,     -4.07 
 781.738,      9.40 
 782.050,     92.44 
 782.362,    -15.29 
 782.674,     13.89 
 782.986,    -37.73 
 783.298,    -22.02 
 783.610,     22.86 
 783.922,      9.40 
 784.233,    -37.73 
 784.545,     11.64 
 784.857,     27.35 
 785.168,     11.64 
 785.480,      0.42 
 785.791,    -13.05 
 786.103,     31.84 
 786.414,      9.40 
 786.725,     -1.82 
 787.037,    -64.67 
 787.348,    -35.49 
 787.659,     -4.07 
 787.970,    -10.80 
 788.281,    -42.22 
 788.592,     -6.31 
 788.903,    -17.53 
 789.214,    -17.53 
 789.525,    -46.71 
 789.836,     49.80 
 790.146,    -66.91 
 790.457,    -51.20 
 790.768,    -39.98 
 791.078,    -10.80 
 791.389,    -17.53 
 791.699,     11.64 
 792.010,    -48.95 
 792.320,    -24.27 
 792.630,    -48.95 
 792.940,      0.42 
 793.251,     49.80 
 793.561,    -51.20 
 793.871,      9.40 
 794.181,    -15.29 
 794.491,      9.40 
 794.801,      7.15 
 795.111,     58.77 
 795.421,    -19.78 
 795.730,    -93.84 
 796.040,     -4.07 
 796.350,     29.60 
 796.659,    -71.40 
 796.969,     -6.31 
 797.279,     31.84 
 797.588,     58.77 
 797.897,     -4.07 
 798.207,     -1.82 
 798.516,    -31.00 
 798.825,    -48.95 
 799.135,     25.11 
 799.444,      0.42 
 799.753,    -51.20 
 800.062,     40.82 
 800.371,     38.57 
 800.680,    -26.51 
 800.989,    -51.20 
 801.298,      0.42 
 801.606,     11.64 
 801.915,    -44.47 
 802.224,     34.09 
 802.532,    -10.80 
 802.841,     11.64 
 803.149,    -17.53 
 803.458,     -6.31 
 803.766,     43.06 
 804.075,    -44.47 
 804.383,    -39.98 
 804.691,     20.62 
 804.999,    -46.71 
 805.308,     52.04 
 805.616,      2.67 
 805.924,    -42.22 
 806.232,     -6.31 
 806.540,    -55.69 
 806.848,    -60.18 
 807.155,     22.86 
 807.463,      2.67 
 807.771,      4.91 
 808.079,     13.89 
 808.386,     85.71 
 808.694,    103.66 
 809.001,     47.55 
 809.309,    -15.29 
 809.616,     56.53 
 809.924,      4.91 
 810.231,      0.42 
 810.538,     -4.07 
 810.845,    -31.00 
 811.152,     25.11 
 811.460,     25.11 
 811.767,     -6.31 
 812.074,    -53.44 
 812.380,    -46.71 
 812.687,    -31.00 
 812.994,     -1.82 
 813.301,     27.35 
 813.608,     -8.56 
 813.914,     76.73 
 814.221,     11.64 
 814.527,     49.80 
 814.834,      7.15 
 815.140,     29.60 
 815.447,     52.04 
 815.753,     36.33 
 816.059,     63.26 
 816.366,     38.57 
 816.672,    -44.47 
 816.978,     58.77 
 817.284,     76.73 
 817.590,     29.60 
 817.896,    -26.51 
 818.202,    -31.00 
 818.508,     20.62 
 818.814,    -35.49 
 819.119,     38.57 
 819.425,    -10.80 
 819.731,     52.04 
 820.036,      4.91 
 820.342,     18.38 
 820.647,    -28.76 
 820.953,     74.48 
 821.258,    -33.24 
 821.564,     31.84 
 821.869,    -42.22 
 822.174,    -37.73 
 822.479,    -17.53 
 822.784,    -37.73 
 823.089,     38.57 
 823.394,     27.35 
 823.699,     -8.56 
 824.004,      2.67 
 824.309,    -17.53 
 824.614,     -8.56 
 824.919,    -15.29 
 825.223,     36.33 
 825.528,     18.38 
 825.833,    -10.80 
 826.137,      0.42 
 826.442,     20.62 
 826.746,     36.33 
 827.050,    -48.95 
 827.355,     13.89 
 827.659,    -26.51 
 827.963,     29.60 
 828.267,     58.77 
 828.571,     -6.31 
 828.875,    -10.80 
 829.179,      2.67 
 829.483,     94.68 
 829.787,    -15.29 
 830.091,     31.84 
 830.395,     67.75 
 830.699,     67.75 
 831.002,     92.44 
 831.306,     40.82 
 831.609,    -15.29 
 831.913,    -48.95 
 832.216,     43.06 
 832.520,    -51.20 
 832.823,     13.89 
 833.126,    -57.93 
 833.430,    -26.51 
 833.733,    -84.86 
 834.036,      7.15 
 834.339,    -19.78 
 834.642,      9.40 
 834.945,      4.91 
 835.248,     87.95 
 835.551,     49.80 
 835.854,    -15.29 
 836.156,     70.00 
 836.459,     20.62 
 836.762,     31.84 
 837.064,     45.31 
 837.367,     45.31 
 837.669,     63.26 
 837.972,    130.59 
 838.274,    289.94 
 838.576,    460.51 
 838.879,    413.38 
 839.181,    287.70 
 839.483,    191.19 
 839.785,     63.26 
 840.087,     54.29 
 840.389,     13.89 
 840.691,     25.11 
 840.993,     43.06 
 841.295,    -17.53 
 841.597,     58.77 
 841.898,     20.62 
 842.200,     31.84 
 842.502,     61.02 
 842.803,     36.33 
 843.105,     76.73 
 843.406,     52.04 
 843.708,    -15.29 
 844.009,     54.29 
 844.310,    -84.86 
 844.611,    -17.53 
 844.913,      9.40 
 845.214,     -8.56 
 845.515,     52.04 
 845.816,    -60.18 
 846.117,     20.62 
 846.418,    -44.47 
 846.719,    -28.76 
 847.019,     13.89 
 847.320,     11.64 
 847.621,     36.33 
 847.921,    -44.47 
 848.222,      9.40 
 848.523,     11.64 
 848.823,     -8.56 
 849.123,     74.48 
 849.424,     38.57 
 849.724,     45.31 
 850.024,     90.19 
 850.325,     65.51 
 850.625,    130.59 
 850.925,    105.91 
 851.225,     61.02 
 851.525,     94.68 
 851.825,     70.00 
 852.125,      9.40 
 852.425,     54.29 
 852.724,    -13.05 
 853.024,     22.86 
 853.324,    -48.95 
 853.623,     38.57 
 853.923,      7.15 
 854.222,    -24.27 
 854.522,      0.42 
 854.821,     18.38 
 855.120,      2.67 
 855.420,     54.29 
 855.719,     36.33 
 856.018,    -51.20 
 856.317,     49.80 
 856.616,    -57.93 
 856.915,    -35.49 
 857.214,     25.11 
 857.513,     13.89 
 857.812,     25.11 
 858.111,     -8.56 
 858.409,    -33.24 
 858.708,     25.11 
 859.007,     18.38 
 859.305,    -48.95 
 859.604,     47.55 
 859.902,     72.24 
 860.201,    -17.53 
 860.499,     45.31 
 860.797,    -31.00 
 861.096,     11.64 
 861.394,     85.71 
 861.692,    -35.49 
 861.990,     18.38 
 862.288,     29.60 
 862.586,     38.57 
 862.884,     11.64 
 863.182,     31.84 
 863.479,     70.00 
 863.777,     -6.31 
 864.075,      0.42 
 864.373,    -28.76 
 864.670,     -1.82 
 864.968,     58.77 
 865.265,      7.15 
 865.563,     20.62 
 865.860,     18.38 
 866.157,     83.46 
 866.454,    -15.29 
 866.752,     90.19 
 867.049,     -6.31 
 867.346,     27.35 
 867.643,     13.89 
 867.940,      2.67 
 868.237,    -48.95 
 868.534,    -22.02 
 868.830,    -22.02 
 869.127,    -78.13 
 869.424,    -75.89 
 869.720,    -15.29 
 870.017,     20.62 
 870.314,     54.29 
 870.610,     13.89 
 870.906,    -10.80 
 871.203,    -24.27 
 871.499,    -13.05 
 871.795,     31.84 
 872.092,     29.60 
 872.388,    -33.24 
 872.684,     22.86 
 872.980,     18.38 
 873.276,    -28.76 
 873.572,    101.42 
 873.868,    -51.20 
 874.163,    -10.80 
 874.459,    -17.53 
 874.755,     58.77 
 875.051,    -37.73 
 875.346,     -6.31 
 875.642,      4.91 
 875.937,     -6.31 
 876.233,     18.38 
 876.528,     65.51 
 876.823,     52.04 
 877.119,     22.86 
 877.414,    -44.47 
 877.709,     31.84 
 878.004,     -4.07 
 878.299,     31.84 
 878.594,      7.15 
 878.889,    -44.47 
 879.184,    -78.13 
 879.479,     13.89 
 879.773,     65.51 
 880.068,    -75.89 
 880.363,     31.84 
 880.657,    -75.89 
 880.952,    -17.53 
 881.246,    -53.44 
